2.0000	220
2.0074	199
2.0148	213
2.0222	227
2.0296	221
2.0370	230
2.0444	195
2.0518	212
2.0592	218
2.0666	224
2.0740	224
2.0813	217
2.0887	210
2.0961	220
2.1035	202
2.1109	243
2.1183	213
2.1257	213
2.1331	225
2.1405	220
2.1479	198
2.1553	214
2.1627	230
2.1701	226
2.1775	199
2.1849	227
2.1923	212
2.1997	196
2.2071	189
2.2145	206
2.2219	211
2.2293	196
2.2366	179
2.2440	178
2.2514	199
2.2588	208
2.2662	185
2.2736	226
2.2810	236
2.2884	196
2.2958	218
2.3032	180
2.3106	202
2.3180	220
2.3254	196
2.3328	211
2.3402	212
2.3476	200
2.3550	217
2.3624	210
2.3698	195
2.3772	199
2.3846	204
2.3919	211
2.3993	187
2.4067	219
2.4141	200
2.4215	230
2.4289	192
2.4363	214
2.4437	191
2.4511	190
2.4585	215
2.4659	209
2.4733	192
2.4807	196
2.4881	202
2.4955	205
2.5029	196
2.5103	193
2.5177	193
2.5251	209
2.5325	190
2.5399	195
2.5472	205
2.5546	239
2.5620	218
2.5694	189
2.5768	217
2.5842	190
2.5916	212
2.5990	207
2.6064	179
2.6138	203
2.6212	175
2.6286	165
2.6360	195
2.6434	188
2.6508	227
2.6582	175
2.6656	186
2.6730	209
2.6804	193
2.6878	182
2.6952	189
2.7025	177
2.7099	187
2.7173	175
2.7247	166
2.7321	191
2.7395	164
2.7469	177
2.7543	180
2.7617	185
2.7691	181
2.7765	170
2.7839	195
2.7913	172
2.7987	225
2.8061	194
2.8135	175
2.8209	181
2.8283	189
2.8357	170
2.8431	178
2.8505	160
2.8579	195
2.8652	180
2.8726	187
2.8800	184
2.8874	175
2.8948	186
2.9022	162
2.9096	187
2.9170	177
2.9244	194
2.9318	187
2.9392	153
2.9466	187
2.9540	181
2.9614	179
2.9688	172
2.9762	188
2.9836	160
2.9910	183
2.9984	196
3.0058	195
3.0132	205
3.0205	184
3.0279	161
3.0353	173
3.0427	176
3.0501	174
3.0575	174
3.0649	195
3.0723	190
3.0797	165
3.0871	200
3.0945	182
3.1019	177
3.1093	203
3.1167	154
3.1241	174
3.1315	168
3.1389	166
3.1463	200
3.1537	162
3.1611	177
3.1685	169
3.1758	149
3.1832	182
3.1906	157
3.1980	163
3.2054	171
3.2128	172
3.2202	151
3.2276	165
3.2350	152
3.2424	168
3.2498	167
3.2572	174
3.2646	177
3.2720	187
3.2794	154
3.2868	169
3.2942	173
3.3016	174
3.3090	188
3.3164	163
3.3238	164
3.3311	176
3.3385	177
3.3459	161
3.3533	164
3.3607	194
3.3681	168
3.3755	180
3.3829	171
3.3903	158
3.3977	182
3.4051	153
3.4125	179
3.4199	175
3.4273	201
3.4347	183
3.4421	175
3.4495	173
3.4569	180
3.4643	164
3.4717	184
3.4791	169
3.4864	152
3.4938	165
3.5012	170
3.5086	166
3.5160	156
3.5234	188
3.5308	150
3.5382	154
3.5456	150
3.5530	161
3.5604	165
3.5678	171
3.5752	165
3.5826	179
3.5900	150
3.5974	182
3.6048	165
3.6122	139
3.6196	184
3.6270	181
3.6344	152
3.6417	188
3.6491	181
3.6565	163
3.6639	146
3.6713	178
3.6787	142
3.6861	156
3.6935	178
3.7009	173
3.7083	158
3.7157	156
3.7231	177
3.7305	176
3.7379	163
3.7453	192
3.7527	158
3.7601	152
3.7675	147
3.7749	149
3.7823	154
3.7897	166
3.7970	174
3.8044	168
3.8118	154
3.8192	151
3.8266	144
3.8340	148
3.8414	144
3.8488	158
3.8562	172
3.8636	150
3.8710	157
3.8784	116
3.8858	167
3.8932	177
3.9006	137
3.9080	137
3.9154	137
3.9228	144
3.9302	130
3.9376	151
3.9450	124
3.9523	150
3.9597	174
3.9671	148
3.9745	160
3.9819	151
3.9893	157
3.9967	152
4.0041	153
4.0115	143
4.0189	140
4.0263	171
4.0337	137
4.0411	128
4.0485	153
4.0559	128
4.0633	134
4.0707	145
4.0781	138
4.0855	154
4.0929	156
4.1003	151
4.1076	128
4.1150	126
4.1224	115
4.1298	154
4.1372	136
4.1446	152
4.1520	132
4.1594	132
4.1668	124
4.1742	159
4.1816	135
4.1890	123
4.1964	143
4.2038	126
4.2112	143
4.2186	124
4.2260	130
4.2334	142
4.2408	142
4.2482	145
4.2556	142
4.2629	117
4.2703	128
4.2777	111
4.2851	134
4.2925	129
4.2999	132
4.3073	126
4.3147	135
4.3221	123
4.3295	148
4.3369	136
4.3443	154
4.3517	121
4.3591	120
4.3665	123
4.3739	117
4.3813	108
4.3887	109
4.3961	130
4.4035	129
4.4109	104
4.4183	126
4.4256	116
4.4330	122
4.4404	120
4.4478	124
4.4552	125
4.4626	126
4.4700	108
4.4774	119
4.4848	120
4.4922	104
4.4996	112
4.5070	134
4.5144	124
4.5218	128
4.5292	97
4.5366	125
4.5440	121
4.5514	125
4.5588	103
4.5662	117
4.5736	114
4.5809	102
4.5883	111
4.5957	119
4.6031	123
4.6105	120
4.6179	115
4.6253	138
4.6327	124
4.6401	111
4.6475	122
4.6549	114
4.6623	102
4.6697	119
4.6771	104
4.6845	117
4.6919	109
4.6993	102
4.7067	128
4.7141	132
4.7215	121
4.7289	116
4.7362	100
4.7436	120
4.7510	129
4.7584	114
4.7658	139
4.7732	124
4.7806	105
4.7880	114
4.7954	120
4.8028	125
4.8102	122
4.8176	118
4.8250	113
4.8324	98
4.8398	104
4.8472	82
4.8546	120
4.8620	102
4.8694	101
4.8768	112
4.8842	106
4.8915	113
4.8989	117
4.9063	115
4.9137	119
4.9211	100
4.9285	119
4.9359	131
4.9433	109
4.9507	115
4.9581	118
4.9655	110
4.9729	121
4.9803	122
4.9877	99
4.9951	121
5.0025	131
5.0099	115
5.0173	118
5.0247	123
5.0321	112
5.0395	108
5.0468	116
5.0542	108
5.0616	99
5.0690	116
5.0764	116
5.0838	105
5.0912	106
5.0986	86
5.1060	94
5.1134	100
5.1208	111
5.1282	88
5.1356	110
5.1430	104
5.1504	112
5.1578	93
5.1652	99
5.1726	111
5.1800	98
5.1874	122
5.1948	89
5.2021	90
5.2095	93
5.2169	115
5.2243	112
5.2317	101
5.2391	115
5.2465	103
5.2539	97
5.2613	115
5.2687	107
5.2761	130
5.2835	117
5.2909	120
5.2983	119
5.3057	109
5.3131	111
5.3205	112
5.3279	99
5.3353	111
5.3427	103
5.3501	98
5.3574	87
5.3648	90
5.3722	109
5.3796	105
5.3870	110
5.3944	112
5.4018	102
5.4092	86
5.4166	118
5.4240	82
5.4314	100
5.4388	99
5.4462	117
5.4536	117
5.4610	121
5.4684	104
5.4758	101
5.4832	93
5.4906	115
5.4980	90
5.5054	92
5.5127	90
5.5201	103
5.5275	88
5.5349	103
5.5423	101
5.5497	94
5.5571	106
5.5645	94
5.5719	86
5.5793	99
5.5867	113
5.5941	99
5.6015	90
5.6089	89
5.6163	113
5.6237	100
5.6311	108
5.6385	97
5.6459	93
5.6533	97
5.6607	105
5.6680	82
5.6754	98
5.6828	112
5.6902	98
5.6976	106
5.7050	106
5.7124	77
5.7198	96
5.7272	88
5.7346	91
5.7420	88
5.7494	88
5.7568	85
5.7642	110
5.7716	115
5.7790	79
5.7864	93
5.7938	101
5.8012	80
5.8086	91
5.8160	91
5.8233	91
5.8307	79
5.8381	98
5.8455	89
5.8529	87
5.8603	89
5.8677	93
5.8751	97
5.8825	99
5.8899	121
5.8973	100
5.9047	87
5.9121	107
5.9195	93
5.9269	85
5.9343	96
5.9417	89
5.9491	84
5.9565	105
5.9639	87
5.9713	104
5.9786	89
5.9860	94
5.9934	83
6.0008	88
6.0082	89
6.0156	105
6.0230	100
6.0304	110
6.0378	92
6.0452	101
6.0526	103
6.0600	103
6.0674	92
6.0748	92
6.0822	92
6.0896	105
6.0970	78
6.1044	90
6.1118	116
6.1192	87
6.1266	82
6.1340	104
6.1413	84
6.1487	86
6.1561	103
6.1635	86
6.1709	84
6.1783	92
6.1857	98
6.1931	87
6.2005	89
6.2079	90
6.2153	92
6.2227	85
6.2301	79
6.2375	97
6.2449	82
6.2523	85
6.2597	95
6.2671	91
6.2745	103
6.2819	107
6.2893	77
6.2966	90
6.3040	82
6.3114	92
6.3188	101
6.3262	92
6.3336	102
6.3410	92
6.3484	87
6.3558	83
6.3632	89
6.3706	101
6.3780	84
6.3854	79
6.3928	100
6.4002	115
6.4076	100
6.4150	102
6.4224	78
6.4298	93
6.4372	95
6.4446	95
6.4519	82
6.4593	85
6.4667	93
6.4741	100
6.4815	100
6.4889	82
6.4963	83
6.5037	92
6.5111	82
6.5185	70
6.5259	99
6.5333	93
6.5407	79
6.5481	87
6.5555	82
6.5629	94
6.5703	89
6.5777	93
6.5851	101
6.5925	84
6.5999	92
6.6072	83
6.6146	102
6.6220	104
6.6294	72
6.6368	81
6.6442	69
6.6516	102
6.6590	82
6.6664	93
6.6738	83
6.6812	80
6.6886	78
6.6960	85
6.7034	69
6.7108	78
6.7182	93
6.7256	74
6.7330	93
6.7404	83
6.7478	80
6.7552	80
6.7625	84
6.7699	86
6.7773	88
6.7847	91
6.7921	93
6.7995	93
6.8069	88
6.8143	91
6.8217	110
6.8291	93
6.8365	91
6.8439	78
6.8513	72
6.8587	88
6.8661	104
6.8735	72
6.8809	83
6.8883	87
6.8957	79
6.9031	84
6.9105	75
6.9178	84
6.9252	73
6.9326	65
6.9400	81
6.9474	90
6.9548	77
6.9622	86
6.9696	91
6.9770	89
6.9844	74
6.9918	75
6.9992	84
7.0066	85
7.0140	94
7.0214	71
7.0288	78
7.0362	101
7.0436	94
7.0510	88
7.0584	98
7.0658	89
7.0731	90
7.0805	89
7.0879	95
7.0953	90
7.1027	70
7.1101	92
7.1175	86
7.1249	92
7.1323	72
7.1397	80
7.1471	94
7.1545	75
7.1619	75
7.1693	86
7.1767	79
7.1841	105
7.1915	92
7.1989	89
7.2063	111
7.2137	85
7.2211	89
7.2284	92
7.2358	91
7.2432	80
7.2506	98
7.2580	94
7.2654	96
7.2728	81
7.2802	93
7.2876	86
7.2950	85
7.3024	97
7.3098	60
7.3172	88
7.3246	82
7.3320	79
7.3394	77
7.3468	74
7.3542	90
7.3616	67
7.3690	80
7.3764	83
7.3837	81
7.3911	93
7.3985	86
7.4059	71
7.4133	89
7.4207	73
7.4281	96
7.4355	88
7.4429	88
7.4503	92
7.4577	69
7.4651	88
7.4725	78
7.4799	69
7.4873	62
7.4947	96
7.5021	82
7.5095	95
7.5169	78
7.5243	85
7.5317	81
7.5390	87
7.5464	79
7.5538	85
7.5612	99
7.5686	102
7.5760	85
7.5834	78
7.5908	86
7.5982	81
7.6056	83
7.6130	88
7.6204	78
7.6278	79
7.6352	91
7.6426	95
7.6500	97
7.6574	92
7.6648	81
7.6722	95
7.6796	81
7.6870	90
7.6944	112
7.7017	105
7.7091	95
7.7165	102
7.7239	92
7.7313	106
7.7387	106
7.7461	90
7.7535	98
7.7609	76
7.7683	74
7.7757	86
7.7831	92
7.7905	96
7.7979	81
7.8053	95
7.8127	85
7.8201	95
7.8275	95
7.8349	82
7.8423	81
7.8497	97
7.8570	76
7.8644	101
7.8718	76
7.8792	82
7.8866	79
7.8940	85
7.9014	82
7.9088	94
7.9162	89
7.9236	79
7.9310	102
7.9384	95
7.9458	100
7.9532	81
7.9606	83
7.9680	102
7.9754	82
7.9828	83
7.9902	79
7.9976	81
8.0050	85
8.0123	86
8.0197	89
8.0271	92
8.0345	91
8.0419	90
8.0493	90
8.0567	85
8.0641	99
8.0715	92
8.0789	103
8.0863	108
8.0937	104
8.1011	119
8.1085	96
8.1159	86
8.1233	110
8.1307	91
8.1381	106
8.1455	100
8.1529	114
8.1603	112
8.1676	112
8.1750	93
8.1824	109
8.1898	108
8.1972	113
8.2046	130
8.2120	130
8.2194	139
8.2268	131
8.2342	134
8.2416	142
8.2490	139
8.2564	146
8.2638	150
8.2712	143
8.2786	164
8.2860	179
8.2934	169
8.3008	214
8.3082	191
8.3156	203
8.3229	188
8.3303	250
8.3377	253
8.3451	250
8.3525	251
8.3599	284
8.3673	291
8.3747	339
8.3821	351
8.3895	401
8.3969	429
8.4043	474
8.4117	516
8.4191	564
8.4265	599
8.4339	637
8.4413	726
8.4487	817
8.4561	889
8.4635	1083
8.4709	1298
8.4782	1452
8.4856	1752
8.4930	2136
8.5004	2585
8.5078	2916
8.5152	3517
8.5226	3808
8.5300	3967
8.5374	3914
8.5448	3821
8.5522	3439
8.5596	2817
8.5670	2459
8.5744	2022
8.5818	1679
8.5892	1286
8.5966	940
8.6040	732
8.6114	543
8.6188	425
8.6262	334
8.6335	344
8.6409	278
8.6483	222
8.6557	220
8.6631	194
8.6705	204
8.6779	202
8.6853	158
8.6927	190
8.7001	149
8.7075	178
8.7149	155
8.7223	147
8.7297	154
8.7371	155
8.7445	144
8.7519	150
8.7593	163
8.7667	149
8.7741	138
8.7815	133
8.7888	135
8.7962	136
8.8036	136
8.8110	135
8.8184	115
8.8258	132
8.8332	111
8.8406	110
8.8480	125
8.8554	135
8.8628	133
8.8702	119
8.8776	135
8.8850	127
8.8924	119
8.8998	103
8.9072	106
8.9146	121
8.9220	130
8.9294	128
8.9368	127
8.9441	116
8.9515	122
8.9589	116
8.9663	113
8.9737	121
8.9811	99
8.9885	113
8.9959	102
9.0033	125
9.0107	114
9.0181	109
9.0255	113
9.0329	121
9.0403	111
9.0477	103
9.0551	118
9.0625	108
9.0699	125
9.0773	91
9.0847	96
9.0921	119
9.0994	97
9.1068	110
9.1142	106
9.1216	115
9.1290	96
9.1364	123
9.1438	100
9.1512	124
9.1586	96
9.1660	92
9.1734	108
9.1808	105
9.1882	100
9.1956	109
9.2030	119
9.2104	82
9.2178	89
9.2252	101
9.2326	110
9.2400	99
9.2474	96
9.2548	100
9.2621	118
9.2695	97
9.2769	105
9.2843	98
9.2917	128
9.2991	114
9.3065	87
9.3139	114
9.3213	99
9.3287	108
9.3361	88
9.3435	95
9.3509	92
9.3583	101
9.3657	114
9.3731	118
9.3805	100
9.3879	96
9.3953	112
9.4027	110
9.4101	106
9.4174	113
9.4248	98
9.4322	94
9.4396	100
9.4470	112
9.4544	90
9.4618	119
9.4692	108
9.4766	114
9.4840	104
9.4914	110
9.4988	96
9.5062	89
9.5136	113
9.5210	105
9.5284	93
9.5358	94
9.5432	89
9.5506	99
9.5580	108
9.5654	110
9.5727	100
9.5801	103
9.5875	79
9.5949	91
9.6023	100
9.6097	116
9.6171	96
9.6245	116
9.6319	108
9.6393	97
9.6467	99
9.6541	109
9.6615	94
9.6689	94
9.6763	100
9.6837	96
9.6911	106
9.6985	91
9.7059	83
9.7133	116
9.7207	106
9.7280	97
9.7354	96
9.7428	95
9.7502	99
9.7576	88
9.7650	95
9.7724	99
9.7798	94
9.7872	89
9.7946	107
9.8020	105
9.8094	96
9.8168	89
9.8242	99
9.8316	100
9.8390	102
9.8464	102
9.8538	106
9.8612	99
9.8686	87
9.8760	105
9.8833	104
9.8907	104
9.8981	100
9.9055	77
9.9129	90
9.9203	78
9.9277	96
9.9351	98
9.9425	90
9.9499	91
9.9573	98
9.9647	107
9.9721	98
9.9795	102
9.9869	92
9.9943	113
10.0017	96
10.0091	85
10.0165	110
10.0239	108
10.0313	84
10.0386	77
10.0460	85
10.0534	82
10.0608	92
10.0682	93
10.0756	103
10.0830	92
10.0904	103
10.0978	105
10.1052	91
10.1126	95
10.1200	86
10.1274	106
10.1348	105
10.1422	95
10.1496	93
10.1570	95
10.1644	109
10.1718	94
10.1792	104
10.1866	78
10.1939	105
10.2013	94
10.2087	94
10.2161	103
10.2235	114
10.2309	87
10.2383	112
10.2457	81
10.2531	93
10.2605	95
10.2679	85
10.2753	108
10.2827	91
10.2901	95
10.2975	98
10.3049	84
10.3123	95
10.3197	95
10.3271	81
10.3345	116
10.3419	84
10.3492	101
10.3566	94
10.3640	113
10.3714	105
10.3788	89
10.3862	86
10.3936	107
10.4010	73
10.4084	85
10.4158	79
10.4232	89
10.4306	86
10.4380	75
10.4454	97
10.4528	98
10.4602	92
10.4676	91
10.4750	94
10.4824	90
10.4898	92
10.4972	104
10.5045	96
10.5119	74
10.5193	79
10.5267	89
10.5341	91
10.5415	96
10.5489	87
10.5563	90
10.5637	92
10.5711	90
10.5785	91
10.5859	88
10.5933	86
10.6007	94
10.6081	86
10.6155	84
10.6229	96
10.6303	82
10.6377	90
10.6451	102
10.6525	90
10.6598	89
10.6672	88
10.6746	103
10.6820	80
10.6894	76
10.6968	80
10.7042	97
10.7116	103
10.7190	75
10.7264	91
10.7338	100
10.7412	84
10.7486	108
10.7560	106
10.7634	73
10.7708	81
10.7782	87
10.7856	82
10.7930	80
10.8004	84
10.8078	95
10.8151	77
10.8225	84
10.8299	99
10.8373	76
10.8447	103
10.8521	84
10.8595	91
10.8669	88
10.8743	93
10.8817	97
10.8891	87
10.8965	87
10.9039	88
10.9113	86
10.9187	100
10.9261	82
10.9335	104
10.9409	77
10.9483	100
10.9557	80
10.9631	107
10.9705	81
10.9778	94
10.9852	106
10.9926	84
11.0000	98
11.0074	77
11.0148	94
11.0222	96
11.0296	95
11.0370	107
11.0444	97
11.0518	95
11.0592	90
11.0666	90
11.0740	96
11.0814	87
11.0888	92
11.0962	96
11.1036	110
11.1110	107
11.1184	99
11.1258	98
11.1331	100
11.1405	87
11.1479	86
11.1553	111
11.1627	108
11.1701	83
11.1775	102
11.1849	112
11.1923	113
11.1997	89
11.2071	99
11.2145	108
11.2219	86
11.2293	90
11.2367	86
11.2441	85
11.2515	104
11.2589	97
11.2663	92
11.2737	100
11.2811	87
11.2884	85
11.2958	87
11.3032	96
11.3106	97
11.3180	87
11.3254	119
11.3328	90
11.3402	87
11.3476	96
11.3550	102
11.3624	113
11.3698	108
11.3772	82
11.3846	95
11.3920	89
11.3994	102
11.4068	102
11.4142	104
11.4216	109
11.4290	91
11.4364	105
11.4437	108
11.4511	102
11.4585	92
11.4659	105
11.4733	96
11.4807	115
11.4881	99
11.4955	110
11.5029	111
11.5103	111
11.5177	109
11.5251	103
11.5325	118
11.5399	115
11.5473	136
11.5547	107
11.5621	122
11.5695	140
11.5769	147
11.5843	157
11.5917	158
11.5990	161
11.6064	167
11.6138	199
11.6212	198
11.6286	212
11.6360	243
11.6434	244
11.6508	278
11.6582	323
11.6656	348
11.6730	390
11.6804	436
11.6878	593
11.6952	666
11.7026	669
11.7100	772
11.7174	782
11.7248	741
11.7322	765
11.7396	786
11.7470	635
11.7543	558
11.7617	501
11.7691	413
11.7765	351
11.7839	287
11.7913	234
11.7987	216
11.8061	178
11.8135	165
11.8209	148
11.8283	137
11.8357	106
11.8431	124
11.8505	129
11.8579	106
11.8653	113
11.8727	126
11.8801	96
11.8875	114
11.8949	105
11.9023	129
11.9096	124
11.9170	118
11.9244	100
11.9318	127
11.9392	120
11.9466	134
11.9540	130
11.9614	116
11.9688	128
11.9762	115
11.9836	129
11.9910	145
11.9984	140
12.0058	130
12.0132	116
12.0206	127
12.0280	128
12.0354	123
12.0428	119
12.0502	120
12.0576	150
12.0649	131
12.0723	134
12.0797	148
12.0871	136
12.0945	150
12.1019	145
12.1093	141
12.1167	151
12.1241	154
12.1315	139
12.1389	176
12.1463	174
12.1537	149
12.1611	171
12.1685	171
12.1759	167
12.1833	152
12.1907	222
12.1981	197
12.2055	189
12.2129	219
12.2202	235
12.2276	223
12.2350	275
12.2424	276
12.2498	314
12.2572	380
12.2646	406
12.2720	407
12.2794	516
12.2868	578
12.2942	707
12.3016	789
12.3090	952
12.3164	1111
12.3238	1412
12.3312	1695
12.3386	2238
12.3460	2752
12.3534	3260
12.3608	3493
12.3682	3649
12.3755	3460
12.3829	3258
12.3903	3045
12.3977	2647
12.4051	2139
12.4125	1772
12.4199	1469
12.4273	1127
12.4347	877
12.4421	713
12.4495	556
12.4569	430
12.4643	349
12.4717	290
12.4791	265
12.4865	253
12.4939	206
12.5013	220
12.5087	170
12.5161	186
12.5235	190
12.5309	160
12.5382	188
12.5456	167
12.5530	181
12.5604	168
12.5678	163
12.5752	162
12.5826	149
12.5900	169
12.5974	123
12.6048	158
12.6122	145
12.6196	137
12.6270	161
12.6344	148
12.6418	124
12.6492	143
12.6566	139
12.6640	140
12.6714	129
12.6788	140
12.6862	126
12.6935	128
12.7009	125
12.7083	129
12.7157	129
12.7231	130
12.7305	112
12.7379	127
12.7453	121
12.7527	131
12.7601	150
12.7675	114
12.7749	138
12.7823	123
12.7897	121
12.7971	127
12.8045	151
12.8119	127
12.8193	129
12.8267	125
12.8341	126
12.8415	108
12.8488	125
12.8562	115
12.8636	125
12.8710	123
12.8784	134
12.8858	135
12.8932	127
12.9006	118
12.9080	115
12.9154	123
12.9228	123
12.9302	155
12.9376	112
12.9450	131
12.9524	117
12.9598	105
12.9672	132
12.9746	139
12.9820	138
12.9894	112
12.9968	135
13.0041	118
13.0115	129
13.0189	131
13.0263	124
13.0337	141
13.0411	130
13.0485	122
13.0559	118
13.0633	134
13.0707	149
13.0781	131
13.0855	145
13.0929	156
13.1003	144
13.1077	168
13.1151	175
13.1225	154
13.1299	170
13.1373	205
13.1447	219
13.1521	206
13.1594	263
13.1668	294
13.1742	309
13.1816	315
13.1890	377
13.1964	425
13.2038	507
13.2112	546
13.2186	700
13.2260	782
13.2334	831
13.2408	888
13.2482	941
13.2556	938
13.2630	914
13.2704	835
13.2778	728
13.2852	650
13.2926	567
13.3000	501
13.3074	400
13.3147	334
13.3221	281
13.3295	279
13.3369	212
13.3443	202
13.3517	215
13.3591	173
13.3665	191
13.3739	179
13.3813	189
13.3887	149
13.3961	171
13.4035	160
13.4109	158
13.4183	169
13.4257	140
13.4331	148
13.4405	169
13.4479	160
13.4553	157
13.4627	150
13.4700	177
13.4774	149
13.4848	151
13.4922	183
13.4996	189
13.5070	170
13.5144	198
13.5218	205
13.5292	220
13.5366	236
13.5440	227
13.5514	225
13.5588	284
13.5662	286
13.5736	360
13.5810	386
13.5884	420
13.5958	478
13.6032	553
13.6106	566
13.6180	651
13.6253	814
13.6327	968
13.6401	1178
13.6475	1408
13.6549	1583
13.6623	1828
13.6697	2111
13.6771	2264
13.6845	2201
13.6919	2310
13.6993	2219
13.7067	2150
13.7141	1891
13.7215	1645
13.7289	1417
13.7363	1107
13.7437	902
13.7511	721
13.7585	534
13.7659	463
13.7733	398
13.7806	308
13.7880	251
13.7954	237
13.8028	218
13.8102	206
13.8176	198
13.8250	220
13.8324	176
13.8398	176
13.8472	153
13.8546	171
13.8620	170
13.8694	147
13.8768	155
13.8842	155
13.8916	153
13.8990	147
13.9064	127
13.9138	134
13.9212	142
13.9286	137
13.9359	149
13.9433	128
13.9507	142
13.9581	129
13.9655	154
13.9729	130
13.9803	132
13.9877	135
13.9951	132
14.0025	132
14.0099	130
14.0173	117
14.0247	103
14.0321	118
14.0395	120
14.0469	121
14.0543	122
14.0617	110
14.0691	142
14.0765	139
14.0839	127
14.0913	136
14.0986	135
14.1060	126
14.1134	128
14.1208	129
14.1282	141
14.1356	117
14.1430	112
14.1504	109
14.1578	142
14.1652	119
14.1726	123
14.1800	118
14.1874	117
14.1948	143
14.2022	125
14.2096	115
14.2170	122
14.2244	139
14.2318	103
14.2392	126
14.2466	112
14.2539	135
14.2613	140
14.2687	139
14.2761	136
14.2835	147
14.2909	132
14.2983	148
14.3057	152
14.3131	159
14.3205	189
14.3279	173
14.3353	184
14.3427	194
14.3501	246
14.3575	232
14.3649	266
14.3723	274
14.3797	303
14.3871	340
14.3945	341
14.4019	324
14.4092	327
14.4166	332
14.4240	317
14.4314	277
14.4388	251
14.4462	228
14.4536	232
14.4610	181
14.4684	159
14.4758	145
14.4832	130
14.4906	127
14.4980	139
14.5054	136
14.5128	109
14.5202	123
14.5276	130
14.5350	126
14.5424	106
14.5498	107
14.5572	111
14.5645	137
14.5719	121
14.5793	126
14.5867	112
14.5941	102
14.6015	114
14.6089	110
14.6163	124
14.6237	105
14.6311	116
14.6385	107
14.6459	111
14.6533	84
14.6607	80
14.6681	115
14.6755	105
14.6829	105
14.6903	102
14.6977	113
14.7051	124
14.7125	112
14.7198	111
14.7272	116
14.7346	116
14.7420	92
14.7494	102
14.7568	94
14.7642	104
14.7716	98
14.7790	111
14.7864	93
14.7938	121
14.8012	94
14.8086	102
14.8160	96
14.8234	113
14.8308	112
14.8382	101
14.8456	101
14.8530	92
14.8604	105
14.8678	88
14.8751	92
14.8825	88
14.8899	102
14.8973	115
14.9047	87
14.9121	103
14.9195	91
14.9269	99
14.9343	96
14.9417	122
14.9491	91
14.9565	80
14.9639	87
14.9713	112
14.9787	98
14.9861	112
14.9935	94
15.0009	110
15.0083	103
15.0157	106
15.0231	103
15.0304	98
15.0378	98
15.0452	91
15.0526	116
15.0600	85
15.0674	102
15.0748	112
15.0822	111
15.0896	93
15.0970	77
15.1044	97
15.1118	102
15.1192	89
15.1266	83
15.1340	82
15.1414	101
15.1488	94
15.1562	101
15.1636	106
15.1710	103
15.1784	106
15.1857	124
15.1931	114
15.2005	107
15.2079	96
15.2153	106
15.2227	89
15.2301	107
15.2375	106
15.2449	116
15.2523	113
15.2597	105
15.2671	99
15.2745	110
15.2819	105
15.2893	87
15.2967	98
15.3041	88
15.3115	98
15.3189	90
15.3263	96
15.3337	88
15.3410	92
15.3484	116
15.3558	85
15.3632	75
15.3706	91
15.3780	82
15.3854	85
15.3928	101
15.4002	110
15.4076	104
15.4150	92
15.4224	101
15.4298	117
15.4372	90
15.4446	118
15.4520	113
15.4594	116
15.4668	115
15.4742	122
15.4816	120
15.4890	135
15.4963	130
15.5037	143
15.5111	165
15.5185	166
15.5259	165
15.5333	185
15.5407	183
15.5481	177
15.5555	205
15.5629	172
15.5703	182
15.5777	154
15.5851	158
15.5925	107
15.5999	125
15.6073	133
15.6147	119
15.6221	125
15.6295	111
15.6369	112
15.6443	103
15.6516	94
15.6590	109
15.6664	87
15.6738	100
15.6812	89
15.6886	107
15.6960	101
15.7034	105
15.7108	107
15.7182	100
15.7256	111
15.7330	90
15.7404	100
15.7478	106
15.7552	99
15.7626	92
15.7700	96
15.7774	100
15.7848	94
15.7922	103
15.7996	97
15.8070	90
15.8143	88
15.8217	111
15.8291	105
15.8365	89
15.8439	109
15.8513	95
15.8587	83
15.8661	100
15.8735	87
15.8809	96
15.8883	104
15.8957	92
15.9031	104
15.9105	76
15.9179	92
15.9253	96
15.9327	64
15.9401	81
15.9475	96
15.9549	90
15.9623	79
15.9696	81
15.9770	86
15.9844	114
15.9918	84
15.9992	95
16.0066	89
16.0140	85
16.0214	99
16.0288	91
16.0362	82
16.0436	80
16.0510	86
16.0584	104
16.0658	88
16.0732	100
16.0806	81
16.0880	93
16.0954	92
16.1028	106
16.1102	91
16.1176	93
16.1249	88
16.1323	83
16.1397	88
16.1471	87
16.1545	84
16.1619	83
16.1693	89
16.1767	97
16.1841	90
16.1915	93
16.1989	89
16.2063	92
16.2137	92
16.2211	86
16.2285	81
16.2359	103
16.2433	104
16.2507	92
16.2581	111
16.2655	88
16.2729	109
16.2802	95
16.2876	94
16.2950	97
16.3024	125
16.3098	83
16.3172	112
16.3246	95
16.3320	91
16.3394	87
16.3468	91
16.3542	93
16.3616	120
16.3690	95
16.3764	115
16.3838	104
16.3912	106
16.3986	101
16.4060	100
16.4134	88
16.4208	131
16.4282	110
16.4355	106
16.4429	112
16.4503	97
16.4577	110
16.4651	111
16.4725	112
16.4799	106
16.4873	121
16.4947	118
16.5021	101
16.5095	122
16.5169	107
16.5243	108
16.5317	102
16.5391	115
16.5465	108
16.5539	108
16.5613	124
16.5687	120
16.5761	102
16.5835	109
16.5908	120
16.5982	105
16.6056	125
16.6130	127
16.6204	122
16.6278	148
16.6352	151
16.6426	157
16.6500	144
16.6574	153
16.6648	136
16.6722	173
16.6796	184
16.6870	164
16.6944	192
16.7018	210
16.7092	238
16.7166	264
16.7240	268
16.7314	295
16.7388	326
16.7461	357
16.7535	431
16.7609	436
16.7683	572
16.7757	673
16.7831	742
16.7905	897
16.7979	994
16.8053	1074
16.8127	1178
16.8201	1228
16.8275	1259
16.8349	1243
16.8423	1228
16.8497	1115
16.8571	1031
16.8645	904
16.8719	855
16.8793	691
16.8867	623
16.8941	551
16.9014	523
16.9088	404
16.9162	375
16.9236	326
16.9310	302
16.9384	331
16.9458	299
16.9532	319
16.9606	331
16.9680	351
16.9754	361
16.9828	374
16.9902	504
16.9976	556
17.0050	679
17.0124	745
17.0198	858
17.0272	892
17.0346	913
17.0420	936
17.0494	915
17.0567	838
17.0641	705
17.0715	686
17.0789	632
17.0863	531
17.0937	529
17.1011	372
17.1085	334
17.1159	250
17.1233	207
17.1307	216
17.1381	202
17.1455	152
17.1529	178
17.1603	165
17.1677	154
17.1751	143
17.1825	146
17.1899	128
17.1973	144
17.2047	130
17.2120	119
17.2194	142
17.2268	127
17.2342	127
17.2416	122
17.2490	115
17.2564	125
17.2638	124
17.2712	128
17.2786	113
17.2860	128
17.2934	110
17.3008	130
17.3082	111
17.3156	102
17.3230	109
17.3304	110
17.3378	103
17.3452	99
17.3526	108
17.3600	103
17.3674	118
17.3747	118
17.3821	94
17.3895	113
17.3969	94
17.4043	122
17.4117	109
17.4191	104
17.4265	110
17.4339	114
17.4413	98
17.4487	109
17.4561	107
17.4635	117
17.4709	105
17.4783	100
17.4857	110
17.4931	103
17.5005	112
17.5079	97
17.5153	113
17.5227	94
17.5300	110
17.5374	108
17.5448	127
17.5522	108
17.5596	106
17.5670	112
17.5744	110
17.5818	112
17.5892	113
17.5966	144
17.6040	122
17.6114	130
17.6188	126
17.6262	108
17.6336	140
17.6410	130
17.6484	143
17.6558	143
17.6632	141
17.6706	160
17.6780	161
17.6853	162
17.6927	183
17.7001	222
17.7075	193
17.7149	227
17.7223	241
17.7297	238
17.7371	322
17.7445	379
17.7519	410
17.7593	498
17.7667	514
17.7741	603
17.7815	698
17.7889	829
17.7963	970
17.8037	1086
17.8111	1138
17.8185	1230
17.8259	1335
17.8333	1359
17.8406	1404
17.8480	1369
17.8554	1313
17.8628	1238
17.8702	1093
17.8776	1014
17.8850	896
17.8924	784
17.8998	701
17.9072	557
17.9146	479
17.9220	433
17.9294	339
17.9368	313
17.9442	265
17.9516	231
17.9590	192
17.9664	185
17.9738	169
17.9812	187
17.9886	173
17.9959	173
18.0033	160
18.0107	164
18.0181	145
18.0255	135
18.0329	148
18.0403	145
18.0477	128
18.0551	130
18.0625	139
18.0699	133
18.0773	136
18.0847	137
18.0921	122
18.0995	123
18.1069	111
18.1143	113
18.1217	127
18.1291	137
18.1365	152
18.1439	125
18.1512	104
18.1586	128
18.1660	125
18.1734	125
18.1808	119
18.1882	131
18.1956	111
18.2030	113
18.2104	127
18.2178	120
18.2252	113
18.2326	119
18.2400	102
18.2474	109
18.2548	121
18.2622	99
18.2696	109
18.2770	111
18.2844	124
18.2918	121
18.2992	102
18.3065	109
18.3139	96
18.3213	125
18.3287	123
18.3361	129
18.3435	120
18.3509	131
18.3583	126
18.3657	113
18.3731	152
18.3805	162
18.3879	161
18.3953	157
18.4027	168
18.4101	155
18.4175	178
18.4249	173
18.4323	185
18.4397	205
18.4471	244
18.4545	255
18.4618	304
18.4692	345
18.4766	404
18.4840	449
18.4914	515
18.4988	601
18.5062	710
18.5136	831
18.5210	927
18.5284	1221
18.5358	1392
18.5432	1523
18.5506	1712
18.5580	1778
18.5654	1723
18.5728	1664
18.5802	1615
18.5876	1436
18.5950	1329
18.6024	1324
18.6098	1155
18.6171	1082
18.6245	945
18.6319	823
18.6393	732
18.6467	625
18.6541	602
18.6615	474
18.6689	433
18.6763	376
18.6837	360
18.6911	318
18.6985	306
18.7059	264
18.7133	222
18.7207	190
18.7281	188
18.7355	187
18.7429	163
18.7503	150
18.7577	149
18.7651	137
18.7724	131
18.7798	128
18.7872	139
18.7946	143
18.8020	138
18.8094	115
18.8168	129
18.8242	146
18.8316	114
18.8390	131
18.8464	123
18.8538	131
18.8612	111
18.8686	102
18.8760	107
18.8834	107
18.8908	121
18.8982	120
18.9056	127
18.9130	108
18.9204	98
18.9278	103
18.9351	105
18.9425	89
18.9499	99
18.9573	123
18.9647	83
18.9721	100
18.9795	91
18.9869	117
18.9943	99
19.0017	105
19.0091	94
19.0165	108
19.0239	86
19.0313	96
19.0387	91
19.0461	80
19.0535	101
19.0609	86
19.0683	96
19.0757	93
19.0831	84
19.0904	91
19.0978	96
19.1052	94
19.1126	95
19.1200	97
19.1274	104
19.1348	97
19.1422	110
19.1496	94
19.1570	87
19.1644	109
19.1718	77
19.1792	75
19.1866	101
19.1940	84
19.2014	101
19.2088	101
19.2162	85
19.2236	93
19.2310	107
19.2384	84
19.2457	100
19.2531	113
19.2605	91
19.2679	92
19.2753	81
19.2827	79
19.2901	107
19.2975	103
19.3049	106
19.3123	76
19.3197	97
19.3271	101
19.3345	122
19.3419	111
19.3493	120
19.3567	113
19.3641	113
19.3715	112
19.3789	117
19.3863	132
19.3937	140
19.4010	123
19.4084	141
19.4158	182
19.4232	209
19.4306	193
19.4380	223
19.4454	245
19.4528	307
19.4602	295
19.4676	334
19.4750	324
19.4824	319
19.4898	294
19.4972	264
19.5046	255
19.5120	225
19.5194	215
19.5268	201
19.5342	202
19.5416	153
19.5490	151
19.5563	126
19.5637	114
19.5711	130
19.5785	111
19.5859	101
19.5933	101
19.6007	113
19.6081	98
19.6155	87
19.6229	103
19.6303	78
19.6377	71
19.6451	100
19.6525	105
19.6599	115
19.6673	88
19.6747	113
19.6821	83
19.6895	87
19.6969	89
19.7043	74
19.7116	94
19.7190	106
19.7264	91
19.7338	85
19.7412	77
19.7486	114
19.7560	97
19.7634	110
19.7708	79
19.7782	115
19.7856	118
19.7930	96
19.8004	98
19.8078	104
19.8152	101
19.8226	83
19.8300	80
19.8374	112
19.8448	108
19.8522	86
19.8596	108
19.8669	99
19.8743	108
19.8817	102
19.8891	116
19.8965	118
19.9039	93
19.9113	100
19.9187	104
19.9261	78
19.9335	85
19.9409	104
19.9483	109
19.9557	98
19.9631	79
19.9705	81
19.9779	101
19.9853	107
19.9927	89
20.0001	106
20.0075	100
20.0149	92
20.0222	110
20.0296	100
20.0370	121
20.0444	87
20.0518	104
20.0592	103
20.0666	102
20.0740	100
20.0814	93
20.0888	101
20.0962	107
20.1036	85
20.1110	98
20.1184	85
20.1258	117
20.1332	86
20.1406	114
20.1480	90
20.1554	119
20.1628	113
20.1702	109
20.1775	108
20.1849	108
20.1923	101
20.1997	127
20.2071	111
20.2145	100
20.2219	112
20.2293	116
20.2367	107
20.2441	118
20.2515	112
20.2589	120
20.2663	134
20.2737	120
20.2811	113
20.2885	129
20.2959	122
20.3033	99
20.3107	140
20.3181	133
20.3255	122
20.3328	136
20.3402	141
20.3476	145
20.3550	154
20.3624	170
20.3698	161
20.3772	204
20.3846	232
20.3920	216
20.3994	196
20.4068	235
20.4142	273
20.4216	306
20.4290	346
20.4364	352
20.4438	406
20.4512	510
20.4586	588
20.4660	675
20.4734	814
20.4808	943
20.4882	1139
20.4955	1276
20.5029	1575
20.5103	1696
20.5177	1692
20.5251	1756
20.5325	1748
20.5399	1600
20.5473	1608
20.5547	1368
20.5621	1285
20.5695	1236
20.5769	1075
20.5843	942
20.5917	830
20.5991	719
20.6065	549
20.6139	473
20.6213	404
20.6287	360
20.6361	314
20.6435	274
20.6508	258
20.6582	263
20.6656	233
20.6730	225
20.6804	191
20.6878	180
20.6952	170
20.7026	171
20.7100	168
20.7174	152
20.7248	142
20.7322	151
20.7396	159
20.7470	150
20.7544	123
20.7618	156
20.7692	174
20.7766	152
20.7840	143
20.7914	153
20.7988	138
20.8061	156
20.8135	125
20.8209	158
20.8283	151
20.8357	171
20.8431	154
20.8505	192
20.8579	174
20.8653	239
20.8727	206
20.8801	251
20.8875	239
20.8949	303
20.9023	352
20.9097	386
20.9171	466
20.9245	487
20.9319	483
20.9393	542
20.9467	506
20.9541	491
20.9614	473
20.9688	435
20.9762	414
20.9836	376
20.9910	404
20.9984	349
21.0058	297
21.0132	269
21.0206	261
21.0280	193
21.0354	197
21.0428	180
21.0502	165
21.0576	163
21.0650	136
21.0724	125
21.0798	141
21.0872	126
21.0946	130
21.1020	130
21.1094	126
21.1167	160
21.1241	106
21.1315	150
21.1389	126
21.1463	113
21.1537	129
21.1611	132
21.1685	119
21.1759	126
21.1833	132
21.1907	124
21.1981	115
21.2055	137
21.2129	139
21.2203	141
21.2277	137
21.2351	124
21.2425	120
21.2499	129
21.2573	147
21.2647	131
21.2720	142
21.2794	148
21.2868	137
21.2942	149
21.3016	129
21.3090	130
21.3164	138
21.3238	142
21.3312	156
21.3386	145
21.3460	143
21.3534	177
21.3608	144
21.3682	155
21.3756	179
21.3830	177
21.3904	181
21.3978	178
21.4052	192
21.4126	188
21.4200	224
21.4273	232
21.4347	222
21.4421	251
21.4495	286
21.4569	294
21.4643	336
21.4717	416
21.4791	489
21.4865	537
21.4939	658
21.5013	688
21.5087	725
21.5161	774
21.5235	739
21.5309	743
21.5383	696
21.5457	645
21.5531	640
21.5605	593
21.5679	565
21.5753	559
21.5826	459
21.5900	435
21.5974	406
21.6048	376
21.6122	328
21.6196	297
21.6270	372
21.6344	338
21.6418	353
21.6492	374
21.6566	403
21.6640	435
21.6714	495
21.6788	560
21.6862	612
21.6936	642
21.7010	705
21.7084	688
21.7158	674
21.7232	727
21.7306	677
21.7379	649
21.7453	636
21.7527	607
21.7601	656
21.7675	533
21.7749	535
21.7823	540
21.7897	480
21.7971	454
21.8045	451
21.8119	462
21.8193	436
21.8267	441
21.8341	474
21.8415	489
21.8489	497
21.8563	504
21.8637	561
21.8711	614
21.8785	742
21.8859	842
21.8932	999
21.9006	1125
21.9080	1375
21.9154	1576
21.9228	1936
21.9302	2343
21.9376	2817
21.9450	3487
21.9524	4084
21.9598	4702
21.9672	4919
21.9746	4923
21.9820	4842
21.9894	4594
21.9968	4208
22.0042	4008
22.0116	3692
22.0190	3326
22.0264	3074
22.0338	2862
22.0412	2374
22.0485	2097
22.0559	1649
22.0633	1339
22.0707	1018
22.0781	858
22.0855	672
22.0929	617
22.1003	512
22.1077	475
22.1151	370
22.1225	374
22.1299	356
22.1373	360
22.1447	348
22.1521	326
22.1595	271
22.1669	260
22.1743	250
22.1817	234
22.1891	244
22.1965	251
22.2039	229
22.2112	237
22.2186	222
22.2260	229
22.2334	222
22.2408	210
22.2482	181
22.2556	206
22.2630	176
22.2704	179
22.2778	152
22.2852	164
22.2926	167
22.3000	162
22.3074	164
22.3148	174
22.3222	180
22.3296	167
22.3370	156
22.3444	137
22.3518	147
22.3592	138
22.3665	161
22.3739	155
22.3813	160
22.3887	165
22.3961	134
22.4035	141
22.4109	154
22.4183	133
22.4257	145
22.4331	139
22.4405	135
22.4479	113
22.4553	121
22.4627	148
22.4701	145
22.4775	131
22.4849	119
22.4923	115
22.4997	136
22.5071	134
22.5145	128
22.5218	106
22.5292	119
22.5366	146
22.5440	133
22.5514	145
22.5588	130
22.5662	125
22.5736	162
22.5810	132
22.5884	133
22.5958	131
22.6032	141
22.6106	158
22.6180	133
22.6254	153
22.6328	171
22.6402	146
22.6476	160
22.6550	158
22.6624	154
22.6698	213
22.6771	210
22.6845	232
22.6919	292
22.6993	296
22.7067	323
22.7141	397
22.7215	497
22.7289	558
22.7363	629
22.7437	656
22.7511	632
22.7585	612
22.7659	599
22.7733	551
22.7807	465
22.7881	424
22.7955	487
22.8029	468
22.8103	403
22.8177	367
22.8251	338
22.8324	314
22.8398	261
22.8472	215
22.8546	198
22.8620	172
22.8694	162
22.8768	146
22.8842	160
22.8916	124
22.8990	144
22.9064	129
22.9138	149
22.9212	145
22.9286	133
22.9360	122
22.9434	114
22.9508	118
22.9582	138
22.9656	123
22.9730	114
22.9804	128
22.9877	128
22.9951	122
23.0025	129
23.0099	107
23.0173	106
23.0247	139
23.0321	122
23.0395	116
23.0469	118
23.0543	105
23.0617	107
23.0691	123
23.0765	99
23.0839	99
23.0913	109
23.0987	109
23.1061	112
23.1135	107
23.1209	105
23.1283	108
23.1357	113
23.1430	99
23.1504	114
23.1578	100
23.1652	126
23.1726	125
23.1800	113
23.1874	135
23.1948	112
23.2022	125
23.2096	112
23.2170	117
23.2244	124
23.2318	105
23.2392	107
23.2466	120
23.2540	118
23.2614	114
23.2688	101
23.2762	101
23.2836	116
23.2910	138
23.2983	118
23.3057	110
23.3131	127
23.3205	132
23.3279	135
23.3353	125
23.3427	119
23.3501	114
23.3575	143
23.3649	153
23.3723	121
23.3797	117
23.3871	148
23.3945	135
23.4019	134
23.4093	144
23.4167	172
23.4241	151
23.4315	145
23.4389	196
23.4463	228
23.4536	219
23.4610	261
23.4684	236
23.4758	232
23.4832	274
23.4906	266
23.4980	260
23.5054	228
23.5128	238
23.5202	242
23.5276	201
23.5350	211
23.5424	225
23.5498	181
23.5572	212
23.5646	170
23.5720	153
23.5794	137
23.5868	147
23.5942	130
23.6016	123
23.6089	140
23.6163	122
23.6237	140
23.6311	138
23.6385	136
23.6459	117
23.6533	141
23.6607	106
23.6681	137
23.6755	142
23.6829	103
23.6903	124
23.6977	148
23.7051	108
23.7125	136
23.7199	148
23.7273	142
23.7347	166
23.7421	124
23.7495	116
23.7569	135
23.7643	132
23.7716	143
23.7790	131
23.7864	136
23.7938	165
23.8012	148
23.8086	142
23.8160	171
23.8234	153
23.8308	166
23.8382	161
23.8456	197
23.8530	196
23.8604	199
23.8678	184
23.8752	242
23.8826	238
23.8900	240
23.8974	285
23.9048	335
23.9122	322
23.9196	411
23.9269	407
23.9343	505
23.9417	630
23.9491	673
23.9565	809
23.9639	967
23.9713	1138
23.9787	1215
23.9861	1202
23.9935	1246
24.0009	1132
24.0083	1067
24.0157	1075
24.0231	1075
24.0305	921
24.0379	920
24.0453	869
24.0527	741
24.0601	733
24.0675	608
24.0749	564
24.0822	482
24.0896	412
24.0970	332
24.1044	316
24.1118	286
24.1192	256
24.1266	250
24.1340	208
24.1414	235
24.1488	209
24.1562	201
24.1636	197
24.1710	209
24.1784	190
24.1858	178
24.1932	184
24.2006	185
24.2080	174
24.2154	166
24.2228	185
24.2302	183
24.2375	196
24.2449	201
24.2523	207
24.2597	227
24.2671	196
24.2745	232
24.2819	264
24.2893	236
24.2967	289
24.3041	307
24.3115	265
24.3189	318
24.3263	362
24.3337	370
24.3411	459
24.3485	513
24.3559	533
24.3633	673
24.3707	766
24.3781	804
24.3855	792
24.3928	739
24.4002	729
24.4076	703
24.4150	698
24.4224	603
24.4298	590
24.4372	546
24.4446	547
24.4520	525
24.4594	469
24.4668	417
24.4742	372
24.4816	314
24.4890	268
24.4964	262
24.5038	206
24.5112	220
24.5186	172
24.5260	178
24.5334	153
24.5408	166
24.5481	164
24.5555	157
24.5629	147
24.5703	133
24.5777	155
24.5851	131
24.5925	151
24.5999	143
24.6073	139
24.6147	160
24.6221	128
24.6295	141
24.6369	171
24.6443	142
24.6517	143
24.6591	128
24.6665	130
24.6739	148
24.6813	153
24.6887	130
24.6961	143
24.7034	151
24.7108	168
24.7182	154
24.7256	171
24.7330	181
24.7404	176
24.7478	197
24.7552	229
24.7626	262
24.7700	268
24.7774	344
24.7848	353
24.7922	376
24.7996	409
24.8070	381
24.8144	337
24.8218	329
24.8292	307
24.8366	301
24.8440	290
24.8514	284
24.8587	272
24.8661	256
24.8735	257
24.8809	232
24.8883	199
24.8957	186
24.9031	176
24.9105	170
24.9179	123
24.9253	134
24.9327	129
24.9401	116
24.9475	125
24.9549	140
24.9623	122
24.9697	138
24.9771	126
24.9845	133
24.9919	114
24.9993	138
25.0067	129
25.0140	116
25.0214	118
25.0288	121
25.0362	124
25.0436	130
25.0510	120
25.0584	113
25.0658	142
25.0732	142
25.0806	131
25.0880	163
25.0954	132
25.1028	117
25.1102	121
25.1176	118
25.1250	133
25.1324	126
25.1398	129
25.1472	122
25.1546	133
25.1620	129
25.1693	120
25.1767	126
25.1841	144
25.1915	137
25.1989	131
25.2063	116
25.2137	123
25.2211	150
25.2285	128
25.2359	135
25.2433	163
25.2507	142
25.2581	133
25.2655	128
25.2729	133
25.2803	159
25.2877	144
25.2951	144
25.3025	145
25.3099	156
25.3173	149
25.3247	142
25.3320	144
25.3394	164
25.3468	169
25.3542	172
25.3616	188
25.3690	185
25.3764	191
25.3838	212
25.3912	231
25.3986	238
25.4060	232
25.4134	280
25.4208	332
25.4282	380
25.4356	442
25.4430	462
25.4504	612
25.4578	694
25.4652	760
25.4726	894
25.4800	1006
25.4873	1058
25.4947	1147
25.5021	1114
25.5095	1118
25.5169	1075
25.5243	908
25.5317	894
25.5391	880
25.5465	872
25.5539	815
25.5613	807
25.5687	750
25.5761	768
25.5835	650
25.5909	663
25.5983	651
25.6057	658
25.6131	624
25.6205	607
25.6279	631
25.6353	623
25.6426	541
25.6500	523
25.6574	492
25.6648	459
25.6722	429
25.6796	470
25.6870	439
25.6944	405
25.7018	398
25.7092	386
25.7166	323
25.7240	306
25.7314	280
25.7388	270
25.7462	260
25.7536	208
25.7610	230
25.7684	244
25.7758	262
25.7832	261
25.7906	276
25.7979	271
25.8053	331
25.8127	320
25.8201	352
25.8275	415
25.8349	438
25.8423	490
25.8497	530
25.8571	565
25.8645	541
25.8719	550
25.8793	460
25.8867	450
25.8941	503
25.9015	432
25.9089	418
25.9163	393
25.9237	418
25.9311	380
25.9385	358
25.9459	338
25.9532	328
25.9606	284
25.9680	251
25.9754	238
25.9828	215
25.9902	194
25.9976	198
26.0050	200
26.0124	194
26.0198	192
26.0272	186
26.0346	205
26.0420	174
26.0494	163
26.0568	180
26.0642	158
26.0716	161
26.0790	159
26.0864	177
26.0938	162
26.1012	162
26.1085	175
26.1159	186
26.1233	145
26.1307	160
26.1381	154
26.1455	165
26.1529	173
26.1603	167
26.1677	179
26.1751	173
26.1825	159
26.1899	175
26.1973	163
26.2047	188
26.2121	192
26.2195	182
26.2269	180
26.2343	150
26.2417	188
26.2491	200
26.2565	224
26.2638	181
26.2712	196
26.2786	204
26.2860	214
26.2934	178
26.3008	226
26.3082	207
26.3156	215
26.3230	243
26.3304	267
26.3378	232
26.3452	247
26.3526	247
26.3600	310
26.3674	274
26.3748	349
26.3822	337
26.3896	361
26.3970	369
26.4044	412
26.4118	443
26.4191	476
26.4265	468
26.4339	559
26.4413	622
26.4487	742
26.4561	858
26.4635	986
26.4709	1180
26.4783	1424
26.4857	1677
26.4931	2004
26.5005	2346
26.5079	2661
26.5153	3019
26.5227	3323
26.5301	3306
26.5375	3416
26.5449	3226
26.5523	3012
26.5597	2813
26.5671	2669
26.5744	2541
26.5818	2474
26.5892	2410
26.5966	2111
26.6040	2041
26.6114	1883
26.6188	1610
26.6262	1345
26.6336	1219
26.6410	972
26.6484	855
26.6558	756
26.6632	625
26.6706	552
26.6780	505
26.6854	518
26.6928	416
26.7002	410
26.7076	391
26.7150	345
26.7224	332
26.7297	303
26.7371	280
26.7445	310
26.7519	279
26.7593	251
26.7667	262
26.7741	236
26.7815	248
26.7889	257
26.7963	216
26.8037	222
26.8111	244
26.8185	223
26.8259	203
26.8333	214
26.8407	207
26.8481	176
26.8555	184
26.8629	179
26.8703	163
26.8777	192
26.8850	183
26.8924	173
26.8998	195
26.9072	179
26.9146	178
26.9220	171
26.9294	188
26.9368	161
26.9442	137
26.9516	164
26.9590	149
26.9664	139
26.9738	131
26.9812	170
26.9886	161
26.9960	176
27.0034	147
27.0108	146
27.0182	145
27.0256	143
27.0330	165
27.0404	156
27.0477	137
27.0551	144
27.0625	156
27.0699	129
27.0773	142
27.0847	161
27.0921	130
27.0995	159
27.1069	132
27.1143	127
27.1217	148
27.1291	136
27.1365	154
27.1439	150
27.1513	158
27.1587	165
27.1661	134
27.1735	137
27.1809	154
27.1883	117
27.1957	137
27.2030	140
27.2104	143
27.2178	124
27.2252	136
27.2326	151
27.2400	124
27.2474	160
27.2548	158
27.2622	156
27.2696	160
27.2770	167
27.2844	173
27.2918	141
27.2992	166
27.3066	160
27.3140	161
27.3214	160
27.3288	193
27.3362	207
27.3436	215
27.3510	227
27.3583	251
27.3657	246
27.3731	260
27.3805	304
27.3879	330
27.3953	316
27.4027	331
27.4101	402
27.4175	439
27.4249	473
27.4323	532
27.4397	669
27.4471	680
27.4545	786
27.4619	882
27.4693	964
27.4767	1120
27.4841	1009
27.4915	990
27.4989	924
27.5063	874
27.5136	817
27.5210	761
27.5284	727
27.5358	640
27.5432	720
27.5506	634
27.5580	647
27.5654	598
27.5728	494
27.5802	462
27.5876	386
27.5950	421
27.6024	355
27.6098	300
27.6172	317
27.6246	274
27.6320	267
27.6394	245
27.6468	221
27.6542	198
27.6616	221
27.6689	220
27.6763	193
27.6837	193
27.6911	198
27.6985	168
27.7059	184
27.7133	160
27.7207	164
27.7281	149
27.7355	124
27.7429	155
27.7503	151
27.7577	152
27.7651	141
27.7725	142
27.7799	141
27.7873	134
27.7947	133
27.8021	138
27.8095	142
27.8169	138
27.8242	136
27.8316	121
27.8390	117
27.8464	128
27.8538	108
27.8612	118
27.8686	131
27.8760	124
27.8834	121
27.8908	112
27.8982	102
27.9056	131
27.9130	133
27.9204	139
27.9278	123
27.9352	131
27.9426	115
27.9500	121
27.9574	126
27.9648	131
27.9722	111
27.9795	114
27.9869	128
27.9943	117
28.0017	103
28.0091	151
28.0165	121
28.0239	134
28.0313	135
28.0387	120
28.0461	118
28.0535	124
28.0609	145
28.0683	122
28.0757	133
28.0831	91
28.0905	125
28.0979	126
28.1053	120
28.1127	116
28.1201	109
28.1275	124
28.1348	126
28.1422	138
28.1496	135
28.1570	119
28.1644	133
28.1718	135
28.1792	130
28.1866	139
28.1940	118
28.2014	142
28.2088	126
28.2162	130
28.2236	152
28.2310	145
28.2384	131
28.2458	161
28.2532	142
28.2606	155
28.2680	140
28.2754	180
28.2828	160
28.2901	174
28.2975	162
28.3049	167
28.3123	185
28.3197	155
28.3271	200
28.3345	207
28.3419	207
28.3493	222
28.3567	244
28.3641	261
28.3715	287
28.3789	346
28.3863	372
28.3937	407
28.4011	476
28.4085	525
28.4159	608
28.4233	704
28.4307	850
28.4381	944
28.4454	995
28.4528	986
28.4602	927
28.4676	935
28.4750	872
28.4824	787
28.4898	779
28.4972	716
28.5046	715
28.5120	664
28.5194	638
28.5268	628
28.5342	590
28.5416	547
28.5490	442
28.5564	408
28.5638	356
28.5712	305
28.5786	266
28.5860	275
28.5934	250
28.6008	232
28.6081	219
28.6155	182
28.6229	175
28.6303	194
28.6377	150
28.6451	175
28.6525	170
28.6599	157
28.6673	150
28.6747	148
28.6821	157
28.6895	145
28.6969	132
28.7043	151
28.7117	127
28.7191	130
28.7265	128
28.7339	134
28.7413	136
28.7487	142
28.7561	140
28.7634	142
28.7708	147
28.7782	145
28.7856	145
28.7930	153
28.8004	142
28.8078	144
28.8152	148
28.8226	160
28.8300	153
28.8374	160
28.8448	177
28.8522	158
28.8596	172
28.8670	154
28.8744	187
28.8818	187
28.8892	214
28.8966	226
28.9040	210
28.9114	218
28.9187	219
28.9261	208
28.9335	227
28.9409	213
28.9483	217
28.9557	257
28.9631	280
28.9705	328
28.9779	336
28.9853	328
28.9927	405
29.0001	344
29.0075	415
29.0149	397
29.0223	407
29.0297	329
29.0371	335
29.0445	301
29.0519	258
29.0593	257
29.0667	263
29.0740	263
29.0814	279
29.0888	261
29.0962	256
29.1036	214
29.1110	194
29.1184	160
29.1258	154
29.1332	169
29.1406	147
29.1480	136
29.1554	131
29.1628	99
29.1702	107
29.1776	118
29.1850	126
29.1924	130
29.1998	101
29.2072	97
29.2146	114
29.2220	116
29.2293	82
29.2367	107
29.2441	95
29.2515	107
29.2589	99
29.2663	92
29.2737	119
29.2811	97
29.2885	114
29.2959	96
29.3033	109
29.3107	98
29.3181	106
29.3255	115
29.3329	83
29.3403	94
29.3477	106
29.3551	103
29.3625	90
29.3699	122
29.3773	97
29.3846	106
29.3920	99
29.3994	115
29.4068	118
29.4142	114
29.4216	93
29.4290	93
29.4364	104
29.4438	119
29.4512	95
29.4586	113
29.4660	123
29.4734	102
29.4808	129
29.4882	111
29.4956	94
29.5030	124
29.5104	134
29.5178	118
29.5252	102
29.5326	125
29.5399	110
29.5473	126
29.5547	156
29.5621	114
29.5695	116
29.5769	135
29.5843	113
29.5917	117
29.5991	101
29.6065	102
29.6139	97
29.6213	122
29.6287	91
29.6361	109
29.6435	121
29.6509	97
29.6583	80
29.6657	99
29.6731	91
29.6805	90
29.6879	109
29.6952	96
29.7026	113
29.7100	83
29.7174	100
29.7248	80
29.7322	103
29.7396	103
29.7470	96
29.7544	87
29.7618	88
29.7692	97
29.7766	96
29.7840	82
29.7914	84
29.7988	90
29.8062	94
29.8136	93
29.8210	105
29.8284	97
29.8358	66
29.8432	97
29.8505	83
29.8579	84
29.8653	95
29.8727	107
29.8801	100
29.8875	84
29.8949	94
29.9023	94
29.9097	88
29.9171	121
29.9245	95
29.9319	85
29.9393	87
29.9467	93
29.9541	95
29.9615	107
29.9689	93
29.9763	92
29.9837	88
29.9911	92
29.9985	101
30.0058	95
30.0132	94
30.0206	82
30.0280	88
30.0354	76
30.0428	80
30.0502	117
30.0576	93
30.0650	94
30.0724	107
30.0798	94
30.0872	94
30.0946	82
30.1020	108
30.1094	92
30.1168	85
30.1242	96
30.1316	104
30.1390	99
30.1464	92
30.1538	107
30.1612	93
30.1685	111
30.1759	82
30.1833	77
30.1907	101
30.1981	90
30.2055	88
30.2129	103
30.2203	76
30.2277	97
30.2351	82
30.2425	76
30.2499	96
30.2573	106
30.2647	93
30.2721	97
30.2795	93
30.2869	78
30.2943	92
30.3017	103
30.3091	79
30.3165	95
30.3238	76
30.3312	78
30.3386	95
30.3460	104
30.3534	79
30.3608	87
30.3682	101
30.3756	85
30.3830	88
30.3904	92
30.3978	93
30.4052	88
30.4126	98
30.4200	81
30.4274	95
30.4348	103
30.4422	93
30.4496	103
30.4570	80
30.4644	96
30.4718	100
30.4791	103
30.4865	98
30.4939	116
30.5013	141
30.5087	122
30.5161	153
30.5235	134
30.5309	132
30.5383	121
30.5457	135
30.5531	134
30.5605	152
30.5679	123
30.5753	126
30.5827	136
30.5901	161
30.5975	139
30.6049	151
30.6123	149
30.6197	143
30.6271	147
30.6344	142
30.6418	132
30.6492	121
30.6566	129
30.6640	132
30.6714	123
30.6788	122
30.6862	123
30.6936	105
30.7010	107
30.7084	142
30.7158	108
30.7232	126
30.7306	103
30.7380	110
30.7454	124
30.7528	105
30.7602	114
30.7676	91
30.7750	101
30.7824	99
30.7897	95
30.7971	89
30.8045	104
30.8119	74
30.8193	97
30.8267	92
30.8341	95
30.8415	79
30.8489	102
30.8563	92
30.8637	104
30.8711	79
30.8785	95
30.8859	79
30.8933	93
30.9007	99
30.9081	91
30.9155	97
30.9229	82
30.9303	104
30.9377	83
30.9450	81
30.9524	91
30.9598	100
30.9672	97
30.9746	80
30.9820	97
30.9894	95
30.9968	89
31.0042	86
31.0116	90
31.0190	89
31.0264	95
31.0338	88
31.0412	86
31.0486	100
31.0560	84
31.0634	84
31.0708	92
31.0782	86
31.0856	73
31.0930	98
31.1003	88
31.1077	89
31.1151	102
31.1225	88
31.1299	91
31.1373	85
31.1447	80
31.1521	92
31.1595	82
31.1669	109
31.1743	93
31.1817	104
31.1891	98
31.1965	89
31.2039	86
31.2113	80
31.2187	94
31.2261	99
31.2335	110
31.2409	109
31.2483	99
31.2556	111
31.2630	115
31.2704	112
31.2778	122
31.2852	107
31.2926	102
31.3000	122
31.3074	116
31.3148	101
31.3222	126
31.3296	120
31.3370	129
31.3444	171
31.3518	163
31.3592	152
31.3666	200
31.3740	186
31.3814	195
31.3888	219
31.3962	238
31.4036	243
31.4109	284
31.4183	265
31.4257	266
31.4331	287
31.4405	275
31.4479	258
31.4553	221
31.4627	214
31.4701	246
31.4775	251
31.4849	262
31.4923	228
31.4997	226
31.5071	211
31.5145	189
31.5219	182
31.5293	186
31.5367	160
31.5441	171
31.5515	178
31.5589	172
31.5662	176
31.5736	159
31.5810	181
31.5884	201
31.5958	160
31.6032	162
31.6106	164
31.6180	164
31.6254	155
31.6328	145
31.6402	146
31.6476	136
31.6550	132
31.6624	147
31.6698	145
31.6772	150
31.6846	151
31.6920	116
31.6994	148
31.7068	129
31.7142	144
31.7215	123
31.7289	115
31.7363	125
31.7437	122
31.7511	109
31.7585	102
31.7659	111
31.7733	105
31.7807	100
31.7881	113
31.7955	100
31.8029	96
31.8103	104
31.8177	95
31.8251	106
31.8325	120
31.8399	114
31.8473	119
31.8547	110
31.8621	119
31.8695	131
31.8769	128
31.8842	146
31.8916	167
31.8990	161
31.9064	171
31.9138	163
31.9212	168
31.9286	158
31.9360	146
31.9434	189
31.9508	157
31.9582	138
31.9656	153
31.9730	150
31.9804	158
31.9878	152
31.9952	150
32.0026	144
32.0100	161
32.0174	136
32.0248	149
32.0322	139
32.0395	111
32.0469	110
32.0543	107
32.0617	114
32.0691	102
32.0765	82
32.0839	100
32.0913	105
32.0987	93
32.1061	111
32.1135	89
32.1209	69
32.1283	109
32.1357	100
32.1431	89
32.1505	95
32.1579	111
32.1653	93
32.1727	84
32.1801	80
32.1875	89
32.1948	85
32.2022	90
32.2096	81
32.2170	100
32.2244	90
32.2318	80
32.2392	87
32.2466	89
32.2540	75
32.2614	87
32.2688	80
32.2762	82
32.2836	84
32.2910	63
32.2984	84
32.3058	88
32.3132	90
32.3206	84
32.3280	96
32.3354	98
32.3428	77
32.3501	90
32.3575	81
32.3649	96
32.3723	81
32.3797	83
32.3871	74
32.3945	81
32.4019	81
32.4093	100
32.4167	83
32.4241	91
32.4315	71
32.4389	96
32.4463	87
32.4537	87
32.4611	96
32.4685	77
32.4759	98
32.4833	98
32.4907	85
32.4981	72
32.5054	92
32.5128	79
32.5202	92
32.5276	83
32.5350	87
32.5424	74
32.5498	91
32.5572	57
32.5646	71
32.5720	86
32.5794	68
32.5868	85
32.5942	97
32.6016	86
32.6090	81
32.6164	81
32.6238	99
32.6312	82
32.6386	76
32.6460	72
32.6534	96
32.6607	62
32.6681	87
32.6755	75
32.6829	71
32.6903	88
32.6977	96
32.7051	93
32.7125	80
32.7199	81
32.7273	88
32.7347	93
32.7421	72
32.7495	89
32.7569	107
32.7643	89
32.7717	76
32.7791	77
32.7865	84
32.7939	85
32.8013	86
32.8087	78
32.8160	85
32.8234	78
32.8308	86
32.8382	78
32.8456	108
32.8530	92
32.8604	91
32.8678	125
32.8752	97
32.8826	108
32.8900	111
32.8974	102
32.9048	87
32.9122	81
32.9196	106
32.9270	104
32.9344	91
32.9418	92
32.9492	94
32.9566	95
32.9640	94
32.9713	95
32.9787	74
32.9861	102
32.9935	90
33.0009	112
33.0083	89
33.0157	100
33.0231	74
33.0305	82
33.0379	96
33.0453	89
33.0527	96
33.0601	88
33.0675	79
33.0749	99
33.0823	82
33.0897	86
33.0971	103
33.1045	77
33.1119	90
33.1193	86
33.1266	93
33.1340	102
33.1414	88
33.1488	92
33.1562	102
33.1636	95
33.1710	98
33.1784	90
33.1858	92
33.1932	97
33.2006	99
33.2080	72
33.2154	104
33.2228	93
33.2302	95
33.2376	87
33.2450	96
33.2524	90
33.2598	80
33.2672	106
33.2746	117
33.2819	86
33.2893	90
33.2967	107
33.3041	127
33.3115	120
33.3189	125
33.3263	125
33.3337	113
33.3411	131
33.3485	126
33.3559	124
33.3633	110
33.3707	115
33.3781	140
33.3855	121
33.3929	139
33.4003	164
33.4077	150
33.4151	131
33.4225	174
33.4299	164
33.4373	158
33.4446	140
33.4520	174
33.4594	164
33.4668	173
33.4742	158
33.4816	203
33.4890	205
33.4964	245
33.5038	243
33.5112	338
33.5186	344
33.5260	396
33.5334	482
33.5408	476
33.5482	478
33.5556	480
33.5630	483
33.5704	493
33.5778	479
33.5852	453
33.5926	513
33.5999	450
33.6073	456
33.6147	496
33.6221	463
33.6295	423
33.6369	390
33.6443	411
33.6517	376
33.6591	357
33.6665	331
33.6739	286
33.6813	273
33.6887	264
33.6961	245
33.7035	231
33.7109	214
33.7183	195
33.7257	161
33.7331	158
33.7405	142
33.7479	143
33.7552	151
33.7626	118
33.7700	142
33.7774	141
33.7848	124
33.7922	120
33.7996	124
33.8070	134
33.8144	114
33.8218	129
33.8292	112
33.8366	107
33.8440	115
33.8514	134
33.8588	115
33.8662	100
33.8736	116
33.8810	106
33.8884	109
33.8958	118
33.9032	118
33.9105	126
33.9179	128
33.9253	136
33.9327	127
33.9401	142
33.9475	129
33.9549	136
33.9623	145
33.9697	143
33.9771	150
33.9845	168
33.9919	147
33.9993	142
34.0067	155
34.0141	152
34.0215	131
34.0289	140
34.0363	122
34.0437	131
34.0511	118
34.0585	133
34.0658	131
34.0732	145
34.0806	185
34.0880	131
34.0954	131
34.1028	105
34.1102	124
34.1176	117
34.1250	133
34.1324	118
34.1398	105
34.1472	113
34.1546	99
34.1620	100
34.1694	141
34.1768	120
34.1842	99
34.1916	84
34.1990	95
34.2064	101
34.2138	107
34.2211	84
34.2285	84
34.2359	97
34.2433	89
34.2507	79
34.2581	85
34.2655	73
34.2729	85
34.2803	100
34.2877	105
34.2951	84
34.3025	69
34.3099	89
34.3173	82
34.3247	87
34.3321	84
34.3395	79
34.3469	82
34.3543	81
34.3617	87
34.3691	96
34.3764	91
34.3838	99
34.3912	74
34.3986	73
34.4060	82
34.4134	82
34.4208	102
34.4282	83
34.4356	96
34.4430	81
34.4504	72
34.4578	73
34.4652	77
34.4726	76
34.4800	83
34.4874	73
34.4948	96
34.5022	93
34.5096	72
34.5170	80
34.5244	81
34.5317	83
34.5391	86
34.5465	74
34.5539	80
34.5613	94
34.5687	87
34.5761	92
34.5835	98
34.5909	67
34.5983	85
34.6057	75
34.6131	98
34.6205	74
34.6279	95
34.6353	72
34.6427	86
34.6501	86
34.6575	88
34.6649	83
34.6723	76
34.6797	74
34.6870	88
34.6944	83
34.7018	71
34.7092	79
34.7166	71
34.7240	83
34.7314	90
34.7388	80
34.7462	71
34.7536	83
34.7610	77
34.7684	99
34.7758	91
34.7832	78
34.7906	83
34.7980	77
34.8054	78
34.8128	80
34.8202	76
34.8276	97
34.8350	68
34.8423	90
34.8497	76
34.8571	89
34.8645	74
34.8719	70
34.8793	82
34.8867	70
34.8941	82
34.9015	69
34.9089	92
34.9163	75
34.9237	90
34.9311	87
34.9385	83
34.9459	87
34.9533	77
34.9607	79
34.9681	80
34.9755	104
34.9829	91
34.9903	110
34.9977	98
35.0050	97
35.0124	95
35.0198	90
35.0272	97
35.0346	79
35.0420	102
35.0494	84
35.0568	93
35.0642	99
35.0716	92
35.0790	85
35.0864	83
35.0938	93
35.1012	92
35.1086	103
35.1160	112
35.1234	111
35.1308	115
35.1382	113
35.1456	93
35.1530	154
35.1603	140
35.1677	153
35.1751	112
35.1825	119
35.1899	115
35.1973	143
35.2047	120
35.2121	146
35.2195	124
35.2269	127
35.2343	129
35.2417	109
35.2491	129
35.2565	100
35.2639	114
35.2713	117
35.2787	114
35.2861	105
35.2935	104
35.3009	102
35.3083	91
35.3156	108
35.3230	105
35.3304	97
35.3378	90
35.3452	88
35.3526	77
35.3600	93
35.3674	109
35.3748	102
35.3822	82
35.3896	93
35.3970	85
35.4044	98
35.4118	89
35.4192	73
35.4266	78
35.4340	79
35.4414	92
35.4488	98
35.4562	87
35.4636	111
35.4709	109
35.4783	107
35.4857	83
35.4931	122
35.5005	93
35.5079	100
35.5153	90
35.5227	87
35.5301	98
35.5375	94
35.5449	75
35.5523	91
35.5597	85
35.5671	98
35.5745	84
35.5819	106
35.5893	92
35.5967	95
35.6041	96
35.6115	87
35.6189	91
35.6262	97
35.6336	80
35.6410	85
35.6484	86
35.6558	76
35.6632	67
35.6706	86
35.6780	83
35.6854	87
35.6928	75
35.7002	82
35.7076	80
35.7150	79
35.7224	90
35.7298	81
35.7372	78
35.7446	96
35.7520	97
35.7594	86
35.7668	68
35.7742	69
35.7815	98
35.7889	91
35.7963	86
35.8037	87
35.8111	95
35.8185	97
35.8259	89
35.8333	81
35.8407	75
35.8481	94
35.8555	99
35.8629	102
35.8703	94
35.8777	114
35.8851	79
35.8925	82
35.8999	101
35.9073	88
35.9147	93
35.9221	94
35.9295	99
35.9368	94
35.9442	89
35.9516	91
35.9590	100
35.9664	108
35.9738	113
35.9812	98
35.9886	89
35.9960	132
36.0034	149
36.0108	125
36.0182	164
36.0256	162
36.0330	168
36.0404	211
36.0478	210
36.0552	198
36.0626	183
36.0700	221
36.0774	185
36.0848	179
36.0921	194
36.0995	192
36.1069	200
36.1143	199
36.1217	199
36.1291	201
36.1365	226
36.1439	249
36.1513	220
36.1587	193
36.1661	240
36.1735	237
36.1809	245
36.1883	197
36.1957	210
36.2031	194
36.2105	187
36.2179	194
36.2253	175
36.2327	167
36.2401	178
36.2474	155
36.2548	164
36.2622	149
36.2696	156
36.2770	165
36.2844	159
36.2918	154
36.2992	150
36.3066	165
36.3140	165
36.3214	191
36.3288	182
36.3362	165
36.3436	203
36.3510	175
36.3584	180
36.3658	157
36.3732	132
36.3806	150
36.3880	125
36.3954	136
36.4027	130
36.4101	141
36.4175	156
36.4249	149
36.4323	131
36.4397	134
36.4471	155
36.4545	136
36.4619	104
36.4693	117
36.4767	92
36.4841	112
36.4915	115
36.4989	87
36.5063	90
36.5137	89
36.5211	91
36.5285	96
36.5359	113
36.5433	72
36.5507	89
36.5580	99
36.5654	90
36.5728	97
36.5802	83
36.5876	88
36.5950	73
36.6024	87
36.6098	68
36.6172	66
36.6246	87
36.6320	100
36.6394	78
36.6468	71
36.6542	83
36.6616	86
36.6690	87
36.6764	79
36.6838	71
36.6912	85
36.6986	82
36.7060	72
36.7134	98
36.7207	72
36.7281	92
36.7355	80
36.7429	58
36.7503	64
36.7577	78
36.7651	75
36.7725	77
36.7799	96
36.7873	69
36.7947	71
36.8021	82
36.8095	86
36.8169	75
36.8243	68
36.8317	72
36.8391	75
36.8465	93
36.8539	66
36.8613	81
36.8687	92
36.8760	84
36.8834	80
36.8908	95
36.8982	74
36.9056	77
36.9130	69
36.9204	71
36.9278	82
36.9352	91
36.9426	82
36.9500	83
36.9574	84
36.9648	82
36.9722	90
36.9796	81
36.9870	76
36.9944	75
37.0018	97
37.0092	78
37.0166	100
37.0240	84
37.0313	92
37.0387	84
37.0461	92
37.0535	83
37.0609	76
37.0683	70
37.0757	95
37.0831	79
37.0905	81
37.0979	99
37.1053	103
37.1127	92
37.1201	80
37.1275	101
37.1349	107
37.1423	111
37.1497	147
37.1571	139
37.1645	130
37.1719	146
37.1793	143
37.1866	140
37.1940	133
37.2014	136
37.2088	133
37.2162	146
37.2236	110
37.2310	120
37.2384	145
37.2458	118
37.2532	114
37.2606	108
37.2680	114
37.2754	122
37.2828	102
37.2902	107
37.2976	103
37.3050	92
37.3124	102
37.3198	108
37.3272	112
37.3346	105
37.3419	105
37.3493	115
37.3567	85
37.3641	109
37.3715	91
37.3789	75
37.3863	82
37.3937	91
37.4011	82
37.4085	95
37.4159	90
37.4233	75
37.4307	93
37.4381	73
37.4455	81
37.4529	88
37.4603	97
37.4677	85
37.4751	97
37.4825	106
37.4899	92
37.4972	106
37.5046	106
37.5120	97
37.5194	99
37.5268	85
37.5342	104
37.5416	119
37.5490	93
37.5564	111
37.5638	112
37.5712	114
37.5786	111
37.5860	102
37.5934	123
37.6008	122
37.6082	129
37.6156	132
37.6230	130
37.6304	152
37.6378	159
37.6452	170
37.6525	199
37.6599	203
37.6673	203
37.6747	231
37.6821	229
37.6895	218
37.6969	194
37.7043	168
37.7117	230
37.7191	203
37.7265	188
37.7339	197
37.7413	197
37.7487	210
37.7561	212
37.7635	186
37.7709	187
37.7783	180
37.7857	165
37.7931	165
37.8005	158
37.8078	170
37.8152	148
37.8226	147
37.8300	148
37.8374	155
37.8448	135
37.8522	140
37.8596	102
37.8670	112
37.8744	117
37.8818	95
37.8892	108
37.8966	100
37.9040	95
37.9114	89
37.9188	106
37.9262	67
37.9336	77
37.9410	87
37.9484	95
37.9558	99
37.9631	73
37.9705	83
37.9779	89
37.9853	89
37.9927	89
38.0001	90
38.0075	91
38.0149	91
38.0223	77
38.0297	92
38.0371	81
38.0445	90
38.0519	86
38.0593	93
38.0667	92
38.0741	91
38.0815	88
38.0889	96
38.0963	109
38.1037	66
38.1111	82
38.1184	91
38.1258	92
38.1332	101
38.1406	78
38.1480	98
38.1554	88
38.1628	104
38.1702	92
38.1776	92
38.1850	90
38.1924	80
38.1998	88
38.2072	92
38.2146	84
38.2220	100
38.2294	102
38.2368	115
38.2442	115
38.2516	116
38.2590	102
38.2664	111
38.2738	143
38.2811	140
38.2885	129
38.2959	144
38.3033	163
38.3107	150
38.3181	165
38.3255	171
38.3329	149
38.3403	165
38.3477	151
38.3551	153
38.3625	144
38.3699	137
38.3773	115
38.3847	139
38.3921	140
38.3995	142
38.4069	174
38.4143	137
38.4217	152
38.4291	142
38.4364	160
38.4438	158
38.4512	138
38.4586	134
38.4660	151
38.4734	148
38.4808	148
38.4882	174
38.4956	153
38.5030	158
38.5104	136
38.5178	146
38.5252	136
38.5326	133
38.5400	127
38.5474	120
38.5548	136
38.5622	101
38.5696	122
38.5770	136
38.5844	111
38.5917	102
38.5991	120
38.6065	125
38.6139	113
38.6213	123
38.6287	93
38.6361	79
38.6435	97
38.6509	77
38.6583	90
38.6657	106
38.6731	104
38.6805	86
38.6879	88
38.6953	98
38.7027	88
38.7101	88
38.7175	88
38.7249	78
38.7323	81
38.7397	84
38.7470	90
38.7544	84
38.7618	83
38.7692	88
38.7766	89
38.7840	89
38.7914	92
38.7988	92
38.8062	92
38.8136	95
38.8210	94
38.8284	70
38.8358	81
38.8432	74
38.8506	87
38.8580	93
38.8654	94
38.8728	79
38.8802	92
38.8876	96
38.8950	87
38.9023	105
38.9097	67
38.9171	93
38.9245	70
38.9319	88
38.9393	80
38.9467	93
38.9541	75
38.9615	85
38.9689	86
38.9763	105
38.9837	85
38.9911	83
38.9985	105
39.0059	101
39.0133	97
39.0207	77
39.0281	81
39.0355	91
39.0429	85
39.0503	88
39.0576	97
39.0650	104
39.0724	107
39.0798	97
39.0872	110
39.0946	102
39.1020	108
39.1094	103
39.1168	98
39.1242	99
39.1316	101
39.1390	86
39.1464	116
39.1538	94
39.1612	118
39.1686	101
39.1760	103
39.1834	127
39.1908	92
39.1982	92
39.2056	104
39.2129	131
39.2203	119
39.2277	136
39.2351	138
39.2425	147
39.2499	135
39.2573	164
39.2647	139
39.2721	168
39.2795	198
39.2869	211
39.2943	235
39.3017	212
39.3091	215
39.3165	206
39.3239	209
39.3313	199
39.3387	196
39.3461	187
39.3535	188
39.3609	185
39.3682	173
39.3756	172
39.3830	190
39.3904	177
39.3978	234
39.4052	248
39.4126	232
39.4200	230
39.4274	254
39.4348	235
39.4422	229
39.4496	202
39.4570	188
39.4644	254
39.4718	204
39.4792	184
39.4866	196
39.4940	213
39.5014	222
39.5088	200
39.5162	180
39.5235	177
39.5309	183
39.5383	192
39.5457	180
39.5531	188
39.5605	160
39.5679	155
39.5753	155
39.5827	166
39.5901	159
39.5975	153
39.6049	142
39.6123	142
39.6197	124
39.6271	141
39.6345	127
39.6419	141
39.6493	118
39.6567	124
39.6641	120
39.6715	120
39.6788	102
39.6862	123
39.6936	113
39.7010	108
39.7084	106
39.7158	111
39.7232	117
39.7306	108
39.7380	99
39.7454	103
39.7528	90
39.7602	123
39.7676	107
39.7750	139
39.7824	129
39.7898	144
39.7972	129
39.8046	140
39.8120	124
39.8194	130
39.8268	136
39.8342	117
39.8415	108
39.8489	119
39.8563	87
39.8637	113
39.8711	105
39.8785	113
39.8859	110
39.8933	101
39.9007	110
39.9081	116
39.9155	103
39.9229	91
39.9303	119
39.9377	109
39.9451	97
39.9525	112
39.9599	113
39.9673	77
39.9747	88
39.9821	96
39.9895	89
39.9968	93
