2.0000	157
2.0074	156
2.0148	167
2.0222	181
2.0296	175
2.0370	153
2.0444	173
2.0518	168
2.0592	191
2.0666	158
2.0740	172
2.0813	182
2.0887	165
2.0961	194
2.1035	208
2.1109	174
2.1183	160
2.1257	161
2.1331	194
2.1405	184
2.1479	150
2.1553	167
2.1627	179
2.1701	187
2.1775	166
2.1849	197
2.1923	170
2.1997	196
2.2071	167
2.2145	170
2.2219	184
2.2293	191
2.2366	182
2.2440	172
2.2514	199
2.2588	183
2.2662	178
2.2736	188
2.2810	194
2.2884	175
2.2958	174
2.3032	162
2.3106	197
2.3180	208
2.3254	184
2.3328	180
2.3402	195
2.3476	173
2.3550	193
2.3624	189
2.3698	182
2.3772	173
2.3846	183
2.3919	186
2.3993	206
2.4067	179
2.4141	160
2.4215	174
2.4289	183
2.4363	188
2.4437	172
2.4511	164
2.4585	176
2.4659	171
2.4733	176
2.4807	197
2.4881	190
2.4955	193
2.5029	192
2.5103	173
2.5177	177
2.5251	177
2.5325	183
2.5399	171
2.5472	174
2.5546	162
2.5620	159
2.5694	192
2.5768	161
2.5842	196
2.5916	195
2.5990	184
2.6064	173
2.6138	184
2.6212	156
2.6286	171
2.6360	178
2.6434	169
2.6508	175
2.6582	168
2.6656	179
2.6730	196
2.6804	191
2.6878	185
2.6952	166
2.7025	173
2.7099	159
2.7173	214
2.7247	161
2.7321	172
2.7395	160
2.7469	172
2.7543	160
2.7617	186
2.7691	179
2.7765	173
2.7839	175
2.7913	165
2.7987	193
2.8061	174
2.8135	173
2.8209	166
2.8283	157
2.8357	197
2.8431	184
2.8505	180
2.8579	184
2.8652	173
2.8726	188
2.8800	158
2.8874	157
2.8948	185
2.9022	190
2.9096	176
2.9170	150
2.9244	181
2.9318	188
2.9392	176
2.9466	177
2.9540	189
2.9614	148
2.9688	179
2.9762	156
2.9836	163
2.9910	162
2.9984	155
3.0058	166
3.0132	170
3.0205	148
3.0279	176
3.0353	149
3.0427	165
3.0501	176
3.0575	172
3.0649	162
3.0723	159
3.0797	158
3.0871	192
3.0945	144
3.1019	158
3.1093	167
3.1167	175
3.1241	139
3.1315	167
3.1389	185
3.1463	164
3.1537	173
3.1611	183
3.1685	178
3.1758	155
3.1832	174
3.1906	187
3.1980	155
3.2054	167
3.2128	141
3.2202	154
3.2276	176
3.2350	168
3.2424	135
3.2498	170
3.2572	161
3.2646	167
3.2720	155
3.2794	192
3.2868	175
3.2942	177
3.3016	166
3.3090	160
3.3164	177
3.3238	178
3.3311	145
3.3385	152
3.3459	169
3.3533	171
3.3607	154
3.3681	181
3.3755	155
3.3829	159
3.3903	161
3.3977	151
3.4051	157
3.4125	155
3.4199	149
3.4273	142
3.4347	160
3.4421	186
3.4495	169
3.4569	159
3.4643	137
3.4717	143
3.4791	167
3.4864	137
3.4938	161
3.5012	160
3.5086	152
3.5160	174
3.5234	151
3.5308	151
3.5382	148
3.5456	167
3.5530	163
3.5604	169
3.5678	161
3.5752	136
3.5826	169
3.5900	141
3.5974	165
3.6048	139
3.6122	143
3.6196	130
3.6270	166
3.6344	148
3.6417	148
3.6491	155
3.6565	173
3.6639	144
3.6713	139
3.6787	140
3.6861	163
3.6935	130
3.7009	158
3.7083	164
3.7157	145
3.7231	153
3.7305	155
3.7379	147
3.7453	135
3.7527	143
3.7601	159
3.7675	154
3.7749	133
3.7823	136
3.7897	162
3.7970	138
3.8044	150
3.8118	129
3.8192	149
3.8266	153
3.8340	115
3.8414	132
3.8488	138
3.8562	127
3.8636	132
3.8710	142
3.8784	136
3.8858	141
3.8932	147
3.9006	130
3.9080	149
3.9154	125
3.9228	160
3.9302	124
3.9376	155
3.9450	131
3.9523	147
3.9597	126
3.9671	134
3.9745	126
3.9819	146
3.9893	120
3.9967	121
4.0041	135
4.0115	129
4.0189	136
4.0263	133
4.0337	121
4.0411	140
4.0485	126
4.0559	156
4.0633	132
4.0707	139
4.0781	104
4.0855	129
4.0929	116
4.1003	122
4.1076	125
4.1150	129
4.1224	132
4.1298	115
4.1372	129
4.1446	133
4.1520	129
4.1594	116
4.1668	117
4.1742	126
4.1816	120
4.1890	126
4.1964	112
4.2038	97
4.2112	112
4.2186	144
4.2260	113
4.2334	116
4.2408	103
4.2482	111
4.2556	94
4.2629	109
4.2703	110
4.2777	112
4.2851	119
4.2925	110
4.2999	121
4.3073	113
4.3147	105
4.3221	118
4.3295	124
4.3369	133
4.3443	118
4.3517	122
4.3591	120
4.3665	118
4.3739	126
4.3813	115
4.3887	109
4.3961	110
4.4035	113
4.4109	119
4.4183	114
4.4256	113
4.4330	130
4.4404	106
4.4478	138
4.4552	118
4.4626	116
4.4700	111
4.4774	111
4.4848	99
4.4922	112
4.4996	140
4.5070	115
4.5144	93
4.5218	104
4.5292	111
4.5366	123
4.5440	110
4.5514	112
4.5588	104
4.5662	105
4.5736	113
4.5809	99
4.5883	111
4.5957	114
4.6031	113
4.6105	105
4.6179	116
4.6253	112
4.6327	103
4.6401	100
4.6475	120
4.6549	104
4.6623	101
4.6697	107
4.6771	102
4.6845	92
4.6919	102
4.6993	110
4.7067	99
4.7141	111
4.7215	75
4.7289	110
4.7362	112
4.7436	106
4.7510	92
4.7584	89
4.7658	102
4.7732	108
4.7806	118
4.7880	86
4.7954	103
4.8028	117
4.8102	89
4.8176	95
4.8250	96
4.8324	97
4.8398	96
4.8472	113
4.8546	98
4.8620	95
4.8694	98
4.8768	87
4.8842	103
4.8915	96
4.8989	115
4.9063	95
4.9137	94
4.9211	98
4.9285	100
4.9359	99
4.9433	98
4.9507	99
4.9581	90
4.9655	76
4.9729	123
4.9803	123
4.9877	100
4.9951	90
5.0025	98
5.0099	103
5.0173	107
5.0247	89
5.0321	98
5.0395	97
5.0468	73
5.0542	102
5.0616	117
5.0690	103
5.0764	112
5.0838	102
5.0912	99
5.0986	92
5.1060	89
5.1134	100
5.1208	94
5.1282	96
5.1356	96
5.1430	89
5.1504	103
5.1578	99
5.1652	108
5.1726	101
5.1800	94
5.1874	89
5.1948	101
5.2021	102
5.2095	106
5.2169	88
5.2243	94
5.2317	102
5.2391	101
5.2465	76
5.2539	86
5.2613	97
5.2687	93
5.2761	83
5.2835	103
5.2909	97
5.2983	109
5.3057	94
5.3131	67
5.3205	83
5.3279	79
5.3353	99
5.3427	97
5.3501	85
5.3574	90
5.3648	91
5.3722	71
5.3796	87
5.3870	73
5.3944	88
5.4018	91
5.4092	84
5.4166	89
5.4240	80
5.4314	85
5.4388	96
5.4462	102
5.4536	83
5.4610	74
5.4684	67
5.4758	97
5.4832	79
5.4906	90
5.4980	90
5.5054	85
5.5127	105
5.5201	99
5.5275	99
5.5349	99
5.5423	88
5.5497	94
5.5571	78
5.5645	76
5.5719	77
5.5793	79
5.5867	81
5.5941	67
5.6015	79
5.6089	104
5.6163	90
5.6237	83
5.6311	86
5.6385	89
5.6459	92
5.6533	79
5.6607	90
5.6680	76
5.6754	86
5.6828	96
5.6902	80
5.6976	77
5.7050	80
5.7124	92
5.7198	81
5.7272	88
5.7346	96
5.7420	82
5.7494	89
5.7568	86
5.7642	68
5.7716	87
5.7790	72
5.7864	73
5.7938	79
5.8012	70
5.8086	73
5.8160	79
5.8233	87
5.8307	95
5.8381	80
5.8455	78
5.8529	88
5.8603	90
5.8677	80
5.8751	80
5.8825	92
5.8899	99
5.8973	73
5.9047	88
5.9121	68
5.9195	78
5.9269	90
5.9343	80
5.9417	76
5.9491	82
5.9565	75
5.9639	92
5.9713	78
5.9786	85
5.9860	82
5.9934	81
6.0008	89
6.0082	80
6.0156	70
6.0230	74
6.0304	79
6.0378	84
6.0452	98
6.0526	96
6.0600	80
6.0674	93
6.0748	69
6.0822	96
6.0896	78
6.0970	70
6.1044	87
6.1118	76
6.1192	66
6.1266	83
6.1340	86
6.1413	96
6.1487	76
6.1561	73
6.1635	65
6.1709	88
6.1783	91
6.1857	79
6.1931	74
6.2005	72
6.2079	78
6.2153	84
6.2227	79
6.2301	76
6.2375	85
6.2449	71
6.2523	84
6.2597	92
6.2671	89
6.2745	83
6.2819	79
6.2893	97
6.2966	78
6.3040	67
6.3114	81
6.3188	89
6.3262	75
6.3336	74
6.3410	87
6.3484	84
6.3558	82
6.3632	65
6.3706	78
6.3780	78
6.3854	68
6.3928	80
6.4002	74
6.4076	83
6.4150	84
6.4224	82
6.4298	76
6.4372	81
6.4446	73
6.4519	84
6.4593	73
6.4667	78
6.4741	71
6.4815	75
6.4889	86
6.4963	72
6.5037	88
6.5111	83
6.5185	65
6.5259	73
6.5333	91
6.5407	68
6.5481	73
6.5555	77
6.5629	81
6.5703	73
6.5777	74
6.5851	77
6.5925	66
6.5999	79
6.6072	61
6.6146	74
6.6220	77
6.6294	69
6.6368	93
6.6442	77
6.6516	78
6.6590	73
6.6664	93
6.6738	83
6.6812	81
6.6886	90
6.6960	89
6.7034	79
6.7108	73
6.7182	77
6.7256	81
6.7330	69
6.7404	68
6.7478	65
6.7552	101
6.7625	97
6.7699	81
6.7773	69
6.7847	69
6.7921	74
6.7995	75
6.8069	66
6.8143	81
6.8217	68
6.8291	68
6.8365	74
6.8439	65
6.8513	76
6.8587	59
6.8661	73
6.8735	74
6.8809	81
6.8883	76
6.8957	78
6.9031	77
6.9105	82
6.9178	76
6.9252	69
6.9326	50
6.9400	84
6.9474	76
6.9548	82
6.9622	70
6.9696	73
6.9770	75
6.9844	75
6.9918	74
6.9992	67
7.0066	70
7.0140	70
7.0214	63
7.0288	80
7.0362	78
7.0436	66
7.0510	70
7.0584	83
7.0658	65
7.0731	66
7.0805	66
7.0879	75
7.0953	80
7.1027	62
7.1101	76
7.1175	69
7.1249	70
7.1323	73
7.1397	71
7.1471	81
7.1545	63
7.1619	65
7.1693	64
7.1767	59
7.1841	69
7.1915	73
7.1989	76
7.2063	70
7.2137	77
7.2211	61
7.2284	68
7.2358	77
7.2432	79
7.2506	69
7.2580	70
7.2654	62
7.2728	72
7.2802	73
7.2876	76
7.2950	69
7.3024	70
7.3098	74
7.3172	52
7.3246	86
7.3320	72
7.3394	73
7.3468	67
7.3542	63
7.3616	93
7.3690	62
7.3764	65
7.3837	69
7.3911	73
7.3985	62
7.4059	73
7.4133	74
7.4207	66
7.4281	70
7.4355	68
7.4429	60
7.4503	67
7.4577	62
7.4651	73
7.4725	64
7.4799	86
7.4873	79
7.4947	63
7.5021	67
7.5095	77
7.5169	71
7.5243	74
7.5317	63
7.5390	68
7.5464	78
7.5538	81
7.5612	78
7.5686	70
7.5760	69
7.5834	72
7.5908	68
7.5982	63
7.6056	79
7.6130	70
7.6204	70
7.6278	65
7.6352	55
7.6426	63
7.6500	68
7.6574	79
7.6648	66
7.6722	69
7.6796	76
7.6870	65
7.6944	107
7.7017	73
7.7091	69
7.7165	71
7.7239	83
7.7313	85
7.7387	80
7.7461	61
7.7535	60
7.7609	81
7.7683	69
7.7757	69
7.7831	78
7.7905	83
7.7979	63
7.8053	88
7.8127	72
7.8201	63
7.8275	79
7.8349	87
7.8423	74
7.8497	86
7.8570	72
7.8644	60
7.8718	62
7.8792	77
7.8866	67
7.8940	66
7.9014	70
7.9088	70
7.9162	53
7.9236	65
7.9310	65
7.9384	83
7.9458	78
7.9532	55
7.9606	67
7.9680	82
7.9754	83
7.9828	78
7.9902	82
7.9976	74
8.0050	71
8.0123	57
8.0197	61
8.0271	71
8.0345	83
8.0419	65
8.0493	62
8.0567	84
8.0641	79
8.0715	78
8.0789	76
8.0863	71
8.0937	83
8.1011	74
8.1085	74
8.1159	78
8.1233	84
8.1307	77
8.1381	80
8.1455	81
8.1529	85
8.1603	71
8.1676	59
8.1750	63
8.1824	92
8.1898	76
8.1972	72
8.2046	89
8.2120	86
8.2194	74
8.2268	76
8.2342	90
8.2416	89
8.2490	87
8.2564	93
8.2638	94
8.2712	111
8.2786	106
8.2860	92
8.2934	118
8.3008	102
8.3082	107
8.3156	130
8.3229	105
8.3303	124
8.3377	103
8.3451	124
8.3525	137
8.3599	148
8.3673	134
8.3747	142
8.3821	155
8.3895	143
8.3969	148
8.4043	166
8.4117	172
8.4191	216
8.4265	215
8.4339	264
8.4413	263
8.4487	307
8.4561	320
8.4635	386
8.4709	440
8.4782	508
8.4856	657
8.4930	750
8.5004	994
8.5078	1318
8.5152	1753
8.5226	2066
8.5300	2181
8.5374	2278
8.5448	2107
8.5522	2037
8.5596	1819
8.5670	1577
8.5744	1355
8.5818	1051
8.5892	888
8.5966	804
8.6040	680
8.6114	583
8.6188	479
8.6262	358
8.6335	326
8.6409	279
8.6483	242
8.6557	220
8.6631	175
8.6705	160
8.6779	143
8.6853	139
8.6927	150
8.7001	136
8.7075	120
8.7149	119
8.7223	101
8.7297	119
8.7371	100
8.7445	133
8.7519	119
8.7593	114
8.7667	101
8.7741	106
8.7815	109
8.7888	113
8.7962	112
8.8036	107
8.8110	96
8.8184	123
8.8258	89
8.8332	94
8.8406	78
8.8480	87
8.8554	76
8.8628	83
8.8702	81
8.8776	86
8.8850	81
8.8924	78
8.8998	97
8.9072	90
8.9146	88
8.9220	84
8.9294	88
8.9368	97
8.9441	86
8.9515	87
8.9589	85
8.9663	92
8.9737	89
8.9811	88
8.9885	103
8.9959	78
9.0033	84
9.0107	99
9.0181	94
9.0255	82
9.0329	88
9.0403	74
9.0477	79
9.0551	87
9.0625	81
9.0699	86
9.0773	86
9.0847	66
9.0921	88
9.0994	100
9.1068	84
9.1142	77
9.1216	90
9.1290	94
9.1364	92
9.1438	94
9.1512	100
9.1586	90
9.1660	72
9.1734	88
9.1808	85
9.1882	90
9.1956	75
9.2030	78
9.2104	84
9.2178	87
9.2252	81
9.2326	73
9.2400	76
9.2474	78
9.2548	87
9.2621	77
9.2695	66
9.2769	73
9.2843	99
9.2917	86
9.2991	89
9.3065	102
9.3139	80
9.3213	81
9.3287	74
9.3361	88
9.3435	74
9.3509	73
9.3583	85
9.3657	84
9.3731	75
9.3805	77
9.3879	90
9.3953	85
9.4027	86
9.4101	75
9.4174	76
9.4248	89
9.4322	70
9.4396	59
9.4470	89
9.4544	77
9.4618	79
9.4692	81
9.4766	81
9.4840	90
9.4914	71
9.4988	83
9.5062	71
9.5136	76
9.5210	76
9.5284	74
9.5358	76
9.5432	86
9.5506	76
9.5580	76
9.5654	89
9.5727	69
9.5801	68
9.5875	67
9.5949	76
9.6023	69
9.6097	72
9.6171	92
9.6245	65
9.6319	72
9.6393	95
9.6467	85
9.6541	84
9.6615	80
9.6689	83
9.6763	85
9.6837	89
9.6911	84
9.6985	75
9.7059	83
9.7133	79
9.7207	69
9.7280	94
9.7354	81
9.7428	88
9.7502	88
9.7576	98
9.7650	80
9.7724	98
9.7798	79
9.7872	82
9.7946	79
9.8020	77
9.8094	80
9.8168	76
9.8242	71
9.8316	87
9.8390	69
9.8464	86
9.8538	86
9.8612	87
9.8686	80
9.8760	80
9.8833	81
9.8907	79
9.8981	78
9.9055	74
9.9129	76
9.9203	78
9.9277	79
9.9351	67
9.9425	91
9.9499	74
9.9573	75
9.9647	75
9.9721	82
9.9795	82
9.9869	66
9.9943	92
10.0017	70
10.0091	79
10.0165	93
10.0239	77
10.0313	75
10.0386	66
10.0460	82
10.0534	86
10.0608	58
10.0682	70
10.0756	66
10.0830	81
10.0904	100
10.0978	58
10.1052	83
10.1126	86
10.1200	91
10.1274	91
10.1348	89
10.1422	81
10.1496	66
10.1570	78
10.1644	71
10.1718	65
10.1792	74
10.1866	87
10.1939	76
10.2013	91
10.2087	88
10.2161	77
10.2235	77
10.2309	68
10.2383	74
10.2457	73
10.2531	73
10.2605	73
10.2679	80
10.2753	81
10.2827	85
10.2901	66
10.2975	72
10.3049	83
10.3123	67
10.3197	73
10.3271	72
10.3345	90
10.3419	85
10.3492	83
10.3566	85
10.3640	71
10.3714	63
10.3788	71
10.3862	93
10.3936	76
10.4010	91
10.4084	69
10.4158	92
10.4232	74
10.4306	77
10.4380	85
10.4454	87
10.4528	80
10.4602	79
10.4676	88
10.4750	83
10.4824	75
10.4898	80
10.4972	76
10.5045	88
10.5119	65
10.5193	80
10.5267	63
10.5341	79
10.5415	86
10.5489	81
10.5563	65
10.5637	70
10.5711	80
10.5785	75
10.5859	76
10.5933	74
10.6007	83
10.6081	66
10.6155	83
10.6229	74
10.6303	68
10.6377	88
10.6451	62
10.6525	79
10.6598	84
10.6672	89
10.6746	60
10.6820	64
10.6894	77
10.6968	73
10.7042	76
10.7116	80
10.7190	81
10.7264	91
10.7338	72
10.7412	74
10.7486	97
10.7560	83
10.7634	74
10.7708	68
10.7782	80
10.7856	75
10.7930	61
10.8004	73
10.8078	78
10.8151	80
10.8225	88
10.8299	78
10.8373	89
10.8447	88
10.8521	87
10.8595	75
10.8669	86
10.8743	70
10.8817	78
10.8891	71
10.8965	76
10.9039	76
10.9113	65
10.9187	76
10.9261	83
10.9335	64
10.9409	81
10.9483	89
10.9557	72
10.9631	81
10.9705	71
10.9778	82
10.9852	76
10.9926	94
11.0000	86
11.0074	84
11.0148	97
11.0222	65
11.0296	76
11.0370	80
11.0444	77
11.0518	78
11.0592	80
11.0666	102
11.0740	76
11.0814	83
11.0888	69
11.0962	93
11.1036	66
11.1110	79
11.1184	75
11.1258	89
11.1331	80
11.1405	72
11.1479	61
11.1553	88
11.1627	85
11.1701	73
11.1775	89
11.1849	98
11.1923	78
11.1997	75
11.2071	83
11.2145	81
11.2219	91
11.2293	82
11.2367	70
11.2441	77
11.2515	91
11.2589	78
11.2663	74
11.2737	69
11.2811	81
11.2884	79
11.2958	60
11.3032	69
11.3106	74
11.3180	82
11.3254	92
11.3328	80
11.3402	81
11.3476	79
11.3550	69
11.3624	81
11.3698	76
11.3772	97
11.3846	71
11.3920	83
11.3994	87
11.4068	73
11.4142	82
11.4216	87
11.4290	87
11.4364	88
11.4437	89
11.4511	75
11.4585	92
11.4659	86
11.4733	88
11.4807	92
11.4881	83
11.4955	77
11.5029	89
11.5103	92
11.5177	88
11.5251	92
11.5325	90
11.5399	99
11.5473	108
11.5547	87
11.5621	99
11.5695	93
11.5769	106
11.5843	109
11.5917	96
11.5990	95
11.6064	84
11.6138	101
11.6212	129
11.6286	137
11.6360	119
11.6434	142
11.6508	149
11.6582	162
11.6656	178
11.6730	228
11.6804	231
11.6878	290
11.6952	352
11.7026	432
11.7100	463
11.7174	504
11.7248	565
11.7322	561
11.7396	487
11.7470	514
11.7543	530
11.7617	480
11.7691	470
11.7765	464
11.7839	454
11.7913	424
11.7987	469
11.8061	428
11.8135	372
11.8209	343
11.8283	304
11.8357	269
11.8431	244
11.8505	192
11.8579	188
11.8653	139
11.8727	136
11.8801	134
11.8875	109
11.8949	106
11.9023	118
11.9096	101
11.9170	105
11.9244	96
11.9318	86
11.9392	99
11.9466	113
11.9540	96
11.9614	91
11.9688	108
11.9762	82
11.9836	105
11.9910	95
11.9984	79
12.0058	95
12.0132	115
12.0206	92
12.0280	88
12.0354	87
12.0428	91
12.0502	100
12.0576	84
12.0649	113
12.0723	98
12.0797	92
12.0871	81
12.0945	101
12.1019	97
12.1093	101
12.1167	103
12.1241	113
12.1315	91
12.1389	96
12.1463	91
12.1537	95
12.1611	98
12.1685	103
12.1759	99
12.1833	92
12.1907	97
12.1981	98
12.2055	94
12.2129	87
12.2202	109
12.2276	104
12.2350	115
12.2424	129
12.2498	126
12.2572	160
12.2646	149
12.2720	173
12.2794	153
12.2868	194
12.2942	227
12.3016	229
12.3090	258
12.3164	289
12.3238	395
12.3312	504
12.3386	645
12.3460	798
12.3534	899
12.3608	978
12.3682	1120
12.3755	1098
12.3829	1023
12.3903	1021
12.3977	941
12.4051	894
12.4125	791
12.4199	707
12.4273	650
12.4347	612
12.4421	543
12.4495	502
12.4569	511
12.4643	451
12.4717	437
12.4791	374
12.4865	307
12.4939	261
12.5013	241
12.5087	219
12.5161	207
12.5235	176
12.5309	129
12.5382	148
12.5456	122
12.5530	108
12.5604	112
12.5678	128
12.5752	103
12.5826	106
12.5900	111
12.5974	110
12.6048	112
12.6122	98
12.6196	113
12.6270	111
12.6344	108
12.6418	80
12.6492	90
12.6566	99
12.6640	115
12.6714	110
12.6788	98
12.6862	102
12.6935	106
12.7009	98
12.7083	73
12.7157	94
12.7231	96
12.7305	96
12.7379	104
12.7453	79
12.7527	109
12.7601	92
12.7675	91
12.7749	98
12.7823	115
12.7897	94
12.7971	116
12.8045	98
12.8119	103
12.8193	111
12.8267	94
12.8341	90
12.8415	99
12.8488	99
12.8562	109
12.8636	99
12.8710	104
12.8784	106
12.8858	88
12.8932	82
12.9006	85
12.9080	111
12.9154	88
12.9228	90
12.9302	108
12.9376	99
12.9450	81
12.9524	117
12.9598	94
12.9672	87
12.9746	94
12.9820	84
12.9894	95
12.9968	107
13.0041	102
13.0115	99
13.0189	92
13.0263	101
13.0337	109
13.0411	85
13.0485	89
13.0559	89
13.0633	105
13.0707	105
13.0781	112
13.0855	108
13.0929	96
13.1003	106
13.1077	103
13.1151	102
13.1225	136
13.1299	120
13.1373	128
13.1447	127
13.1521	103
13.1594	144
13.1668	162
13.1742	158
13.1816	178
13.1890	215
13.1964	225
13.2038	242
13.2112	276
13.2186	308
13.2260	387
13.2334	424
13.2408	480
13.2482	542
13.2556	557
13.2630	520
13.2704	521
13.2778	529
13.2852	509
13.2926	515
13.3000	521
13.3074	487
13.3147	474
13.3221	459
13.3295	419
13.3369	393
13.3443	364
13.3517	342
13.3591	314
13.3665	247
13.3739	243
13.3813	214
13.3887	203
13.3961	184
13.4035	147
13.4109	149
13.4183	115
13.4257	125
13.4331	127
13.4405	105
13.4479	122
13.4553	111
13.4627	135
13.4700	93
13.4774	118
13.4848	119
13.4922	111
13.4996	107
13.5070	132
13.5144	117
13.5218	100
13.5292	111
13.5366	129
13.5440	122
13.5514	112
13.5588	113
13.5662	149
13.5736	134
13.5810	148
13.5884	156
13.5958	188
13.6032	178
13.6106	188
13.6180	244
13.6253	249
13.6327	284
13.6401	345
13.6475	382
13.6549	510
13.6623	550
13.6697	666
13.6771	730
13.6845	842
13.6919	831
13.6993	869
13.7067	921
13.7141	862
13.7215	900
13.7289	897
13.7363	831
13.7437	764
13.7511	692
13.7585	745
13.7659	643
13.7733	548
13.7806	534
13.7880	451
13.7954	433
13.8028	382
13.8102	294
13.8176	290
13.8250	257
13.8324	233
13.8398	212
13.8472	168
13.8546	171
13.8620	145
13.8694	148
13.8768	134
13.8842	137
13.8916	131
13.8990	129
13.9064	104
13.9138	100
13.9212	107
13.9286	101
13.9359	108
13.9433	98
13.9507	117
13.9581	105
13.9655	104
13.9729	108
13.9803	108
13.9877	104
13.9951	108
14.0025	107
14.0099	107
14.0173	100
14.0247	94
14.0321	116
14.0395	114
14.0469	98
14.0543	100
14.0617	98
14.0691	79
14.0765	101
14.0839	97
14.0913	106
14.0986	105
14.1060	85
14.1134	95
14.1208	114
14.1282	107
14.1356	90
14.1430	91
14.1504	84
14.1578	97
14.1652	104
14.1726	95
14.1800	100
14.1874	90
14.1948	93
14.2022	87
14.2096	110
14.2170	105
14.2244	99
14.2318	100
14.2392	84
14.2466	85
14.2539	92
14.2613	89
14.2687	89
14.2761	106
14.2835	101
14.2909	108
14.2983	91
14.3057	98
14.3131	102
14.3205	94
14.3279	113
14.3353	98
14.3427	120
14.3501	118
14.3575	125
14.3649	122
14.3723	159
14.3797	179
14.3871	158
14.3945	196
14.4019	212
14.4092	222
14.4166	243
14.4240	243
14.4314	229
14.4388	233
14.4462	227
14.4536	255
14.4610	220
14.4684	238
14.4758	219
14.4832	193
14.4906	215
14.4980	179
14.5054	179
14.5128	164
14.5202	144
14.5276	139
14.5350	136
14.5424	131
14.5498	130
14.5572	103
14.5645	109
14.5719	101
14.5793	94
14.5867	93
14.5941	98
14.6015	91
14.6089	86
14.6163	86
14.6237	96
14.6311	94
14.6385	91
14.6459	75
14.6533	99
14.6607	92
14.6681	94
14.6755	89
14.6829	81
14.6903	97
14.6977	80
14.7051	99
14.7125	81
14.7198	104
14.7272	88
14.7346	111
14.7420	76
14.7494	106
14.7568	92
14.7642	102
14.7716	87
14.7790	80
14.7864	83
14.7938	72
14.8012	83
14.8086	85
14.8160	86
14.8234	83
14.8308	89
14.8382	85
14.8456	87
14.8530	86
14.8604	99
14.8678	90
14.8751	76
14.8825	87
14.8899	95
14.8973	84
14.9047	86
14.9121	84
14.9195	85
14.9269	84
14.9343	101
14.9417	85
14.9491	90
14.9565	88
14.9639	105
14.9713	76
14.9787	91
14.9861	80
14.9935	78
15.0009	71
15.0083	100
15.0157	91
15.0231	91
15.0304	82
15.0378	82
15.0452	71
15.0526	81
15.0600	94
15.0674	75
15.0748	63
15.0822	86
15.0896	73
15.0970	73
15.1044	59
15.1118	78
15.1192	82
15.1266	92
15.1340	86
15.1414	84
15.1488	81
15.1562	86
15.1636	87
15.1710	88
15.1784	94
15.1857	92
15.1931	68
15.2005	77
15.2079	87
15.2153	69
15.2227	82
15.2301	82
15.2375	76
15.2449	80
15.2523	86
15.2597	79
15.2671	89
15.2745	74
15.2819	82
15.2893	71
15.2967	83
15.3041	75
15.3115	61
15.3189	77
15.3263	84
15.3337	85
15.3410	61
15.3484	79
15.3558	76
15.3632	83
15.3706	68
15.3780	92
15.3854	81
15.3928	85
15.4002	75
15.4076	74
15.4150	79
15.4224	78
15.4298	74
15.4372	91
15.4446	95
15.4520	57
15.4594	69
15.4668	83
15.4742	77
15.4816	82
15.4890	86
15.4963	85
15.5037	102
15.5111	101
15.5185	91
15.5259	105
15.5333	125
15.5407	107
15.5481	132
15.5555	121
15.5629	127
15.5703	133
15.5777	133
15.5851	124
15.5925	156
15.5999	141
15.6073	138
15.6147	125
15.6221	118
15.6295	143
15.6369	137
15.6443	145
15.6516	101
15.6590	91
15.6664	88
15.6738	88
15.6812	114
15.6886	102
15.6960	104
15.7034	103
15.7108	96
15.7182	84
15.7256	87
15.7330	77
15.7404	91
15.7478	78
15.7552	74
15.7626	90
15.7700	84
15.7774	74
15.7848	80
15.7922	75
15.7996	85
15.8070	79
15.8143	68
15.8217	82
15.8291	73
15.8365	88
15.8439	89
15.8513	66
15.8587	71
15.8661	78
15.8735	74
15.8809	89
15.8883	65
15.8957	87
15.9031	85
15.9105	72
15.9179	74
15.9253	80
15.9327	77
15.9401	78
15.9475	85
15.9549	88
15.9623	86
15.9696	77
15.9770	79
15.9844	74
15.9918	78
15.9992	79
16.0066	70
16.0140	75
16.0214	71
16.0288	77
16.0362	76
16.0436	83
16.0510	76
16.0584	68
16.0658	73
16.0732	98
16.0806	81
16.0880	76
16.0954	85
16.1028	87
16.1102	92
16.1176	77
16.1249	79
16.1323	66
16.1397	71
16.1471	62
16.1545	62
16.1619	89
16.1693	74
16.1767	76
16.1841	91
16.1915	93
16.1989	87
16.2063	86
16.2137	77
16.2211	85
16.2285	70
16.2359	76
16.2433	70
16.2507	62
16.2581	70
16.2655	76
16.2729	92
16.2802	88
16.2876	77
16.2950	76
16.3024	70
16.3098	88
16.3172	78
16.3246	74
16.3320	78
16.3394	80
16.3468	77
16.3542	71
16.3616	89
16.3690	81
16.3764	88
16.3838	99
16.3912	74
16.3986	68
16.4060	61
16.4134	87
16.4208	82
16.4282	68
16.4355	84
16.4429	69
16.4503	88
16.4577	100
16.4651	86
16.4725	93
16.4799	84
16.4873	79
16.4947	72
16.5021	74
16.5095	80
16.5169	75
16.5243	81
16.5317	96
16.5391	92
16.5465	75
16.5539	82
16.5613	99
16.5687	79
16.5761	84
16.5835	79
16.5908	76
16.5982	90
16.6056	96
16.6130	101
16.6204	88
16.6278	87
16.6352	84
16.6426	87
16.6500	109
16.6574	114
16.6648	107
16.6722	99
16.6796	109
16.6870	124
16.6944	135
16.7018	133
16.7092	147
16.7166	143
16.7240	135
16.7314	164
16.7388	184
16.7461	193
16.7535	229
16.7609	225
16.7683	249
16.7757	310
16.7831	313
16.7905	376
16.7979	394
16.8053	419
16.8127	462
16.8201	536
16.8275	530
16.8349	612
16.8423	603
16.8497	621
16.8571	697
16.8645	633
16.8719	663
16.8793	620
16.8867	630
16.8941	606
16.9014	556
16.9088	593
16.9162	552
16.9236	474
16.9310	513
16.9384	462
16.9458	441
16.9532	433
16.9606	355
16.9680	394
16.9754	352
16.9828	365
16.9902	402
16.9976	435
17.0050	533
17.0124	638
17.0198	736
17.0272	863
17.0346	822
17.0420	847
17.0494	848
17.0567	751
17.0641	772
17.0715	775
17.0789	701
17.0863	654
17.0937	637
17.1011	541
17.1085	495
17.1159	467
17.1233	430
17.1307	379
17.1381	372
17.1455	321
17.1529	329
17.1603	324
17.1677	299
17.1751	259
17.1825	207
17.1899	177
17.1973	175
17.2047	172
17.2120	144
17.2194	124
17.2268	127
17.2342	124
17.2416	111
17.2490	102
17.2564	119
17.2638	95
17.2712	109
17.2786	101
17.2860	106
17.2934	109
17.3008	105
17.3082	107
17.3156	107
17.3230	82
17.3304	98
17.3378	105
17.3452	95
17.3526	79
17.3600	92
17.3674	72
17.3747	105
17.3821	106
17.3895	86
17.3969	80
17.4043	101
17.4117	85
17.4191	90
17.4265	98
17.4339	103
17.4413	78
17.4487	89
17.4561	95
17.4635	82
17.4709	97
17.4783	90
17.4857	78
17.4931	93
17.5005	104
17.5079	95
17.5153	103
17.5227	80
17.5300	72
17.5374	75
17.5448	79
17.5522	69
17.5596	89
17.5670	84
17.5744	91
17.5818	100
17.5892	88
17.5966	97
17.6040	84
17.6114	86
17.6188	100
17.6262	85
17.6336	92
17.6410	83
17.6484	83
17.6558	114
17.6632	99
17.6706	93
17.6780	93
17.6853	113
17.6927	107
17.7001	123
17.7075	123
17.7149	139
17.7223	133
17.7297	149
17.7371	180
17.7445	174
17.7519	188
17.7593	211
17.7667	230
17.7741	280
17.7815	273
17.7889	329
17.7963	357
17.8037	410
17.8111	421
17.8185	481
17.8259	583
17.8333	626
17.8406	691
17.8480	733
17.8554	763
17.8628	832
17.8702	870
17.8776	866
17.8850	956
17.8924	881
17.8998	894
17.9072	901
17.9146	933
17.9220	900
17.9294	838
17.9368	766
17.9442	752
17.9516	674
17.9590	599
17.9664	552
17.9738	498
17.9812	449
17.9886	402
17.9959	357
18.0033	316
18.0107	298
18.0181	245
18.0255	253
18.0329	186
18.0403	200
18.0477	145
18.0551	149
18.0625	133
18.0699	128
18.0773	147
18.0847	119
18.0921	113
18.0995	115
18.1069	105
18.1143	104
18.1217	124
18.1291	93
18.1365	108
18.1439	96
18.1512	94
18.1586	97
18.1660	99
18.1734	96
18.1808	93
18.1882	93
18.1956	90
18.2030	95
18.2104	94
18.2178	100
18.2252	90
18.2326	89
18.2400	102
18.2474	106
18.2548	95
18.2622	91
18.2696	104
18.2770	97
18.2844	87
18.2918	94
18.2992	107
18.3065	99
18.3139	93
18.3213	97
18.3287	105
18.3361	90
18.3435	106
18.3509	96
18.3583	98
18.3657	106
18.3731	99
18.3805	97
18.3879	88
18.3953	88
18.4027	97
18.4101	115
18.4175	123
18.4249	100
18.4323	115
18.4397	123
18.4471	146
18.4545	127
18.4618	136
18.4692	169
18.4766	174
18.4840	176
18.4914	227
18.4988	251
18.5062	293
18.5136	363
18.5210	429
18.5284	443
18.5358	570
18.5432	647
18.5506	721
18.5580	874
18.5654	979
18.5728	964
18.5802	1136
18.5876	1166
18.5950	1253
18.6024	1337
18.6098	1287
18.6171	1322
18.6245	1269
18.6319	1274
18.6393	1237
18.6467	1225
18.6541	1079
18.6615	1003
18.6689	974
18.6763	940
18.6837	858
18.6911	749
18.6985	684
18.7059	702
18.7133	614
18.7207	552
18.7281	492
18.7355	435
18.7429	407
18.7503	324
18.7577	305
18.7651	283
18.7724	261
18.7798	211
18.7872	186
18.7946	191
18.8020	206
18.8094	169
18.8168	153
18.8242	151
18.8316	135
18.8390	113
18.8464	125
18.8538	127
18.8612	101
18.8686	127
18.8760	100
18.8834	101
18.8908	104
18.8982	85
18.9056	101
18.9130	81
18.9204	78
18.9278	85
18.9351	93
18.9425	89
18.9499	95
18.9573	93
18.9647	78
18.9721	87
18.9795	66
18.9869	103
18.9943	75
19.0017	75
19.0091	101
19.0165	83
19.0239	82
19.0313	88
19.0387	97
19.0461	97
19.0535	76
19.0609	75
19.0683	95
19.0757	95
19.0831	71
19.0904	82
19.0978	77
19.1052	76
19.1126	86
19.1200	72
19.1274	75
19.1348	80
19.1422	77
19.1496	80
19.1570	103
19.1644	83
19.1718	75
19.1792	82
19.1866	74
19.1940	57
19.2014	84
19.2088	98
19.2162	76
19.2236	89
19.2310	88
19.2384	96
19.2457	75
19.2531	70
19.2605	85
19.2679	74
19.2753	77
19.2827	83
19.2901	83
19.2975	85
19.3049	86
19.3123	86
19.3197	87
19.3271	73
19.3345	84
19.3419	93
19.3493	78
19.3567	76
19.3641	82
19.3715	91
19.3789	82
19.3863	97
19.3937	76
19.4010	91
19.4084	103
19.4158	114
19.4232	111
19.4306	127
19.4380	117
19.4454	146
19.4528	119
19.4602	133
19.4676	168
19.4750	154
19.4824	146
19.4898	163
19.4972	176
19.5046	176
19.5120	167
19.5194	163
19.5268	166
19.5342	169
19.5416	142
19.5490	163
19.5563	154
19.5637	131
19.5711	176
19.5785	152
19.5859	115
19.5933	147
19.6007	131
19.6081	122
19.6155	103
19.6229	104
19.6303	104
19.6377	89
19.6451	72
19.6525	96
19.6599	86
19.6673	93
19.6747	92
19.6821	91
19.6895	73
19.6969	84
19.7043	64
19.7116	82
19.7190	73
19.7264	78
19.7338	64
19.7412	79
19.7486	79
19.7560	71
19.7634	58
19.7708	81
19.7782	84
19.7856	73
19.7930	84
19.8004	82
19.8078	82
19.8152	59
19.8226	86
19.8300	89
19.8374	96
19.8448	77
19.8522	86
19.8596	87
19.8669	73
19.8743	83
19.8817	75
19.8891	59
19.8965	73
19.9039	91
19.9113	89
19.9187	89
19.9261	82
19.9335	85
19.9409	76
19.9483	93
19.9557	66
19.9631	72
19.9705	75
19.9779	83
19.9853	75
19.9927	82
20.0001	77
20.0075	95
20.0149	80
20.0222	84
20.0296	88
20.0370	87
20.0444	78
20.0518	83
20.0592	86
20.0666	84
20.0740	84
20.0814	92
20.0888	80
20.0962	81
20.1036	87
20.1110	82
20.1184	79
20.1258	81
20.1332	102
20.1406	93
20.1480	104
20.1554	87
20.1628	84
20.1702	83
20.1775	87
20.1849	81
20.1923	93
20.1997	86
20.2071	81
20.2145	75
20.2219	85
20.2293	88
20.2367	92
20.2441	91
20.2515	75
20.2589	70
20.2663	92
20.2737	78
20.2811	92
20.2885	76
20.2959	104
20.3033	96
20.3107	87
20.3181	92
20.3255	101
20.3328	115
20.3402	109
20.3476	97
20.3550	109
20.3624	109
20.3698	115
20.3772	101
20.3846	130
20.3920	118
20.3994	123
20.4068	133
20.4142	140
20.4216	170
20.4290	167
20.4364	196
20.4438	226
20.4512	279
20.4586	276
20.4660	301
20.4734	378
20.4808	429
20.4882	454
20.4955	586
20.5029	610
20.5103	718
20.5177	765
20.5251	838
20.5325	917
20.5399	995
20.5473	980
20.5547	1069
20.5621	1074
20.5695	1146
20.5769	1154
20.5843	1085
20.5917	1055
20.5991	1082
20.6065	1035
20.6139	945
20.6213	925
20.6287	879
20.6361	776
20.6435	694
20.6508	645
20.6582	550
20.6656	516
20.6730	421
20.6804	400
20.6878	360
20.6952	297
20.7026	257
20.7100	233
20.7174	240
20.7248	186
20.7322	204
20.7396	176
20.7470	147
20.7544	123
20.7618	149
20.7692	137
20.7766	117
20.7840	116
20.7914	120
20.7988	100
20.8061	122
20.8135	109
20.8209	130
20.8283	106
20.8357	111
20.8431	125
20.8505	118
20.8579	128
20.8653	115
20.8727	118
20.8801	124
20.8875	124
20.8949	153
20.9023	131
20.9097	169
20.9171	185
20.9245	218
20.9319	227
20.9393	247
20.9467	274
20.9541	306
20.9614	363
20.9688	363
20.9762	336
20.9836	375
20.9910	402
20.9984	356
21.0058	372
21.0132	409
21.0206	360
21.0280	364
21.0354	366
21.0428	353
21.0502	325
21.0576	312
21.0650	279
21.0724	256
21.0798	231
21.0872	264
21.0946	206
21.1020	206
21.1094	179
21.1167	152
21.1241	154
21.1315	132
21.1389	131
21.1463	107
21.1537	106
21.1611	136
21.1685	127
21.1759	111
21.1833	118
21.1907	102
21.1981	111
21.2055	92
21.2129	111
21.2203	87
21.2277	96
21.2351	111
21.2425	114
21.2499	118
21.2573	98
21.2647	102
21.2720	97
21.2794	117
21.2868	111
21.2942	104
21.3016	98
21.3090	108
21.3164	121
21.3238	117
21.3312	101
21.3386	93
21.3460	112
21.3534	125
21.3608	113
21.3682	118
21.3756	117
21.3830	112
21.3904	124
21.3978	141
21.4052	110
21.4126	120
21.4200	129
21.4273	131
21.4347	131
21.4421	164
21.4495	154
21.4569	191
21.4643	204
21.4717	229
21.4791	245
21.4865	307
21.4939	315
21.5013	419
21.5087	460
21.5161	528
21.5235	534
21.5309	531
21.5383	618
21.5457	699
21.5531	718
21.5605	836
21.5679	804
21.5753	817
21.5826	795
21.5900	755
21.5974	710
21.6048	679
21.6122	661
21.6196	668
21.6270	623
21.6344	659
21.6418	590
21.6492	555
21.6566	524
21.6640	476
21.6714	454
21.6788	435
21.6862	414
21.6936	421
21.7010	422
21.7084	410
21.7158	399
21.7232	355
21.7306	427
21.7379	397
21.7453	413
21.7527	414
21.7601	400
21.7675	426
21.7749	410
21.7823	407
21.7897	424
21.7971	385
21.8045	382
21.8119	383
21.8193	406
21.8267	393
21.8341	340
21.8415	354
21.8489	374
21.8563	373
21.8637	372
21.8711	373
21.8785	348
21.8859	404
21.8932	401
21.9006	447
21.9080	503
21.9154	576
21.9228	721
21.9302	829
21.9376	1067
21.9450	1226
21.9524	1447
21.9598	1734
21.9672	2001
21.9746	2127
21.9820	2377
21.9894	2545
21.9968	2615
22.0042	2687
22.0116	2761
22.0190	2740
22.0264	2746
22.0338	2790
22.0412	2714
22.0485	2627
22.0559	2420
22.0633	2275
22.0707	2175
22.0781	2109
22.0855	1953
22.0929	1713
22.1003	1576
22.1077	1384
22.1151	1259
22.1225	1141
22.1299	1043
22.1373	865
22.1447	817
22.1521	702
22.1595	591
22.1669	557
22.1743	449
22.1817	379
22.1891	345
22.1965	322
22.2039	276
22.2112	257
22.2186	216
22.2260	209
22.2334	183
22.2408	218
22.2482	191
22.2556	179
22.2630	171
22.2704	187
22.2778	150
22.2852	157
22.2926	147
22.3000	149
22.3074	127
22.3148	141
22.3222	140
22.3296	143
22.3370	136
22.3444	134
22.3518	135
22.3592	145
22.3665	125
22.3739	134
22.3813	107
22.3887	138
22.3961	130
22.4035	113
22.4109	131
22.4183	122
22.4257	105
22.4331	133
22.4405	105
22.4479	117
22.4553	116
22.4627	138
22.4701	102
22.4775	128
22.4849	111
22.4923	113
22.4997	123
22.5071	105
22.5145	116
22.5218	121
22.5292	98
22.5366	115
22.5440	108
22.5514	87
22.5588	103
22.5662	106
22.5736	93
22.5810	121
22.5884	125
22.5958	117
22.6032	120
22.6106	103
22.6180	126
22.6254	127
22.6328	118
22.6402	113
22.6476	134
22.6550	129
22.6624	141
22.6698	119
22.6771	125
22.6845	125
22.6919	173
22.6993	145
22.7067	176
22.7141	178
22.7215	210
22.7289	263
22.7363	288
22.7437	355
22.7511	329
22.7585	371
22.7659	405
22.7733	471
22.7807	491
22.7881	472
22.7955	496
22.8029	510
22.8103	525
22.8177	513
22.8251	528
22.8324	530
22.8398	510
22.8472	457
22.8546	407
22.8620	447
22.8694	400
22.8768	391
22.8842	339
22.8916	323
22.8990	271
22.9064	257
22.9138	271
22.9212	210
22.9286	201
22.9360	171
22.9434	180
22.9508	175
22.9582	135
22.9656	126
22.9730	152
22.9804	131
22.9877	116
22.9951	139
23.0025	123
23.0099	107
23.0173	116
23.0247	124
23.0321	117
23.0395	94
23.0469	115
23.0543	109
23.0617	102
23.0691	111
23.0765	116
23.0839	106
23.0913	111
23.0987	129
23.1061	106
23.1135	101
23.1209	111
23.1283	103
23.1357	99
23.1430	103
23.1504	103
23.1578	110
23.1652	114
23.1726	116
23.1800	97
23.1874	112
23.1948	94
23.2022	109
23.2096	99
23.2170	86
23.2244	108
23.2318	97
23.2392	107
23.2466	90
23.2540	108
23.2614	116
23.2688	107
23.2762	100
23.2836	110
23.2910	102
23.2983	89
23.3057	128
23.3131	106
23.3205	93
23.3279	101
23.3353	88
23.3427	111
23.3501	108
23.3575	109
23.3649	120
23.3723	96
23.3797	102
23.3871	116
23.3945	118
23.4019	110
23.4093	103
23.4167	126
23.4241	108
23.4315	118
23.4389	136
23.4463	170
23.4536	179
23.4610	216
23.4684	218
23.4758	197
23.4832	210
23.4906	230
23.4980	216
23.5054	218
23.5128	228
23.5202	250
23.5276	280
23.5350	280
23.5424	277
23.5498	286
23.5572	285
23.5646	323
23.5720	263
23.5794	251
23.5868	281
23.5942	264
23.6016	243
23.6089	210
23.6163	203
23.6237	227
23.6311	202
23.6385	196
23.6459	174
23.6533	176
23.6607	153
23.6681	144
23.6755	144
23.6829	131
23.6903	132
23.6977	137
23.7051	140
23.7125	121
23.7199	120
23.7273	114
23.7347	127
23.7421	105
23.7495	110
23.7569	111
23.7643	99
23.7716	111
23.7790	123
23.7864	112
23.7938	128
23.8012	107
23.8086	108
23.8160	118
23.8234	111
23.8308	104
23.8382	120
23.8456	136
23.8530	131
23.8604	144
23.8678	124
23.8752	139
23.8826	167
23.8900	182
23.8974	190
23.9048	188
23.9122	188
23.9196	186
23.9269	257
23.9343	287
23.9417	300
23.9491	351
23.9565	370
23.9639	394
23.9713	469
23.9787	522
23.9861	521
23.9935	600
24.0009	637
24.0083	642
24.0157	647
24.0231	653
24.0305	711
24.0379	698
24.0453	729
24.0527	725
24.0601	683
24.0675	712
24.0749	670
24.0822	645
24.0896	601
24.0970	616
24.1044	566
24.1118	519
24.1192	476
24.1266	476
24.1340	448
24.1414	415
24.1488	360
24.1562	348
24.1636	334
24.1710	279
24.1784	256
24.1858	276
24.1932	233
24.2006	175
24.2080	190
24.2154	181
24.2228	142
24.2302	161
24.2375	148
24.2449	162
24.2523	166
24.2597	159
24.2671	148
24.2745	162
24.2819	171
24.2893	179
24.2967	172
24.3041	213
24.3115	196
24.3189	200
24.3263	212
24.3337	212
24.3411	259
24.3485	299
24.3559	284
24.3633	352
24.3707	381
24.3781	421
24.3855	479
24.3928	461
24.4002	560
24.4076	560
24.4150	591
24.4224	576
24.4298	612
24.4372	592
24.4446	589
24.4520	593
24.4594	592
24.4668	629
24.4742	596
24.4816	570
24.4890	490
24.4964	487
24.5038	434
24.5112	464
24.5186	378
24.5260	362
24.5334	352
24.5408	303
24.5481	254
24.5555	289
24.5629	257
24.5703	208
24.5777	197
24.5851	180
24.5925	166
24.5999	183
24.6073	166
24.6147	140
24.6221	148
24.6295	119
24.6369	127
24.6443	109
24.6517	112
24.6591	124
24.6665	109
24.6739	112
24.6813	124
24.6887	117
24.6961	108
24.7034	135
24.7108	109
24.7182	113
24.7256	92
24.7330	125
24.7404	145
24.7478	130
24.7552	150
24.7626	151
24.7700	158
24.7774	177
24.7848	195
24.7922	187
24.7996	215
24.8070	181
24.8144	171
24.8218	180
24.8292	195
24.8366	197
24.8440	194
24.8514	202
24.8587	192
24.8661	185
24.8735	186
24.8809	160
24.8883	184
24.8957	167
24.9031	171
24.9105	158
24.9179	156
24.9253	153
24.9327	152
24.9401	138
24.9475	134
24.9549	142
24.9623	119
24.9697	127
24.9771	124
24.9845	130
24.9919	118
24.9993	123
25.0067	130
25.0140	117
25.0214	105
25.0288	128
25.0362	104
25.0436	97
25.0510	92
25.0584	88
25.0658	108
25.0732	122
25.0806	107
25.0880	124
25.0954	112
25.1028	81
25.1102	97
25.1176	101
25.1250	112
25.1324	97
25.1398	113
25.1472	97
25.1546	82
25.1620	107
25.1693	97
25.1767	111
25.1841	107
25.1915	87
25.1989	98
25.2063	96
25.2137	107
25.2211	98
25.2285	99
25.2359	95
25.2433	105
25.2507	124
25.2581	102
25.2655	95
25.2729	120
25.2803	100
25.2877	94
25.2951	92
25.3025	107
25.3099	112
25.3173	106
25.3247	116
25.3320	109
25.3394	116
25.3468	99
25.3542	114
25.3616	124
25.3690	114
25.3764	114
25.3838	114
25.3912	143
25.3986	142
25.4060	143
25.4134	134
25.4208	163
25.4282	177
25.4356	176
25.4430	201
25.4504	234
25.4578	228
25.4652	315
25.4726	340
25.4800	346
25.4873	389
25.4947	461
25.5021	473
25.5095	523
25.5169	533
25.5243	544
25.5317	584
25.5391	635
25.5465	578
25.5539	643
25.5613	661
25.5687	616
25.5761	689
25.5835	666
25.5909	691
25.5983	779
25.6057	787
25.6131	813
25.6205	894
25.6279	893
25.6353	786
25.6426	718
25.6500	624
25.6574	609
25.6648	570
25.6722	584
25.6796	587
25.6870	569
25.6944	556
25.7018	540
25.7092	463
25.7166	444
25.7240	402
25.7314	397
25.7388	388
25.7462	371
25.7536	346
25.7610	330
25.7684	292
25.7758	325
25.7832	306
25.7906	276
25.7979	248
25.8053	253
25.8127	260
25.8201	261
25.8275	258
25.8349	263
25.8423	278
25.8497	271
25.8571	269
25.8645	280
25.8719	301
25.8793	255
25.8867	280
25.8941	292
25.9015	307
25.9089	291
25.9163	309
25.9237	271
25.9311	292
25.9385	300
25.9459	251
25.9532	308
25.9606	283
25.9680	271
25.9754	269
25.9828	243
25.9902	261
25.9976	260
26.0050	253
26.0124	198
26.0198	211
26.0272	207
26.0346	167
26.0420	178
26.0494	158
26.0568	167
26.0642	181
26.0716	164
26.0790	140
26.0864	153
26.0938	145
26.1012	172
26.1085	143
26.1159	156
26.1233	123
26.1307	144
26.1381	119
26.1455	120
26.1529	129
26.1603	137
26.1677	125
26.1751	112
26.1825	123
26.1899	135
26.1973	133
26.2047	132
26.2121	146
26.2195	150
26.2269	115
26.2343	133
26.2417	122
26.2491	140
26.2565	134
26.2638	130
26.2712	106
26.2786	129
26.2860	139
26.2934	143
26.3008	135
26.3082	134
26.3156	120
26.3230	139
26.3304	156
26.3378	145
26.3452	159
26.3526	165
26.3600	190
26.3674	181
26.3748	203
26.3822	177
26.3896	200
26.3970	222
26.4044	227
26.4118	267
26.4191	251
26.4265	319
26.4339	327
26.4413	384
26.4487	424
26.4561	460
26.4635	468
26.4709	553
26.4783	634
26.4857	695
26.4931	754
26.5005	871
26.5079	1040
26.5153	1123
26.5227	1221
26.5301	1381
26.5375	1501
26.5449	1512
26.5523	1626
26.5597	1636
26.5671	1615
26.5744	1662
26.5818	1675
26.5892	1725
26.5966	1757
26.6040	1726
26.6114	1765
26.6188	1636
26.6262	1654
26.6336	1605
26.6410	1408
26.6484	1298
26.6558	1289
26.6632	1151
26.6706	1036
26.6780	992
26.6854	950
26.6928	808
26.7002	726
26.7076	659
26.7150	522
26.7224	523
26.7297	468
26.7371	412
26.7445	355
26.7519	348
26.7593	318
26.7667	296
26.7741	247
26.7815	213
26.7889	224
26.7963	220
26.8037	192
26.8111	175
26.8185	166
26.8259	160
26.8333	198
26.8407	167
26.8481	156
26.8555	153
26.8629	147
26.8703	128
26.8777	112
26.8850	122
26.8924	158
26.8998	136
26.9072	128
26.9146	130
26.9220	104
26.9294	98
26.9368	131
26.9442	136
26.9516	131
26.9590	115
26.9664	139
26.9738	124
26.9812	129
26.9886	138
26.9960	133
27.0034	121
27.0108	130
27.0182	107
27.0256	93
27.0330	125
27.0404	107
27.0477	122
27.0551	129
27.0625	124
27.0699	114
27.0773	114
27.0847	104
27.0921	95
27.0995	128
27.1069	111
27.1143	127
27.1217	128
27.1291	107
27.1365	115
27.1439	114
27.1513	97
27.1587	116
27.1661	116
27.1735	108
27.1809	105
27.1883	130
27.1957	96
27.2030	87
27.2104	130
27.2178	114
27.2252	127
27.2326	124
27.2400	132
27.2474	97
27.2548	116
27.2622	99
27.2696	124
27.2770	99
27.2844	131
27.2918	132
27.2992	102
27.3066	123
27.3140	141
27.3214	124
27.3288	120
27.3362	120
27.3436	132
27.3510	147
27.3583	145
27.3657	156
27.3731	145
27.3805	158
27.3879	176
27.3953	215
27.4027	222
27.4101	202
27.4175	223
27.4249	266
27.4323	278
27.4397	319
27.4471	337
27.4545	365
27.4619	433
27.4693	469
27.4767	532
27.4841	567
27.4915	539
27.4989	581
27.5063	631
27.5136	664
27.5210	573
27.5284	671
27.5358	689
27.5432	623
27.5506	646
27.5580	578
27.5654	575
27.5728	587
27.5802	605
27.5876	493
27.5950	516
27.6024	498
27.6098	449
27.6172	413
27.6246	403
27.6320	386
27.6394	338
27.6468	331
27.6542	311
27.6616	289
27.6689	294
27.6763	274
27.6837	232
27.6911	239
27.6985	217
27.7059	230
27.7133	201
27.7207	178
27.7281	177
27.7355	165
27.7429	183
27.7503	172
27.7577	156
27.7651	147
27.7725	163
27.7799	142
27.7873	149
27.7947	134
27.8021	126
27.8095	119
27.8169	111
27.8242	118
27.8316	113
27.8390	123
27.8464	94
27.8538	124
27.8612	117
27.8686	119
27.8760	123
27.8834	109
27.8908	108
27.8982	105
27.9056	93
27.9130	94
27.9204	98
27.9278	103
27.9352	116
27.9426	113
27.9500	111
27.9574	105
27.9648	104
27.9722	105
27.9795	110
27.9869	87
27.9943	104
28.0017	98
28.0091	121
28.0165	110
28.0239	106
28.0313	97
28.0387	100
28.0461	112
28.0535	117
28.0609	105
28.0683	102
28.0757	96
28.0831	95
28.0905	117
28.0979	103
28.1053	94
28.1127	97
28.1201	103
28.1275	122
28.1348	95
28.1422	100
28.1496	95
28.1570	87
28.1644	108
28.1718	106
28.1792	118
28.1866	109
28.1940	101
28.2014	103
28.2088	103
28.2162	93
28.2236	107
28.2310	111
28.2384	96
28.2458	102
28.2532	113
28.2606	110
28.2680	107
28.2754	104
28.2828	121
28.2901	107
28.2975	124
28.3049	118
28.3123	137
28.3197	125
28.3271	147
28.3345	160
28.3419	147
28.3493	166
28.3567	186
28.3641	176
28.3715	178
28.3789	212
28.3863	209
28.3937	212
28.4011	218
28.4085	270
28.4159	305
28.4233	334
28.4307	342
28.4381	402
28.4454	366
28.4528	428
28.4602	453
28.4676	470
28.4750	454
28.4824	530
28.4898	509
28.4972	530
28.5046	507
28.5120	535
28.5194	491
28.5268	519
28.5342	535
28.5416	468
28.5490	460
28.5564	464
28.5638	458
28.5712	387
28.5786	405
28.5860	377
28.5934	359
28.6008	326
28.6081	306
28.6155	305
28.6229	310
28.6303	247
28.6377	222
28.6451	221
28.6525	198
28.6599	176
28.6673	178
28.6747	170
28.6821	162
28.6895	132
28.6969	139
28.7043	131
28.7117	116
28.7191	120
28.7265	117
28.7339	112
28.7413	115
28.7487	113
28.7561	120
28.7634	122
28.7708	99
28.7782	115
28.7856	125
28.7930	117
28.8004	126
28.8078	87
28.8152	121
28.8226	98
28.8300	129
28.8374	121
28.8448	132
28.8522	123
28.8596	122
28.8670	154
28.8744	145
28.8818	133
28.8892	144
28.8966	141
28.9040	163
28.9114	186
28.9187	181
28.9261	172
28.9335	183
28.9409	162
28.9483	188
28.9557	190
28.9631	215
28.9705	221
28.9779	245
28.9853	237
28.9927	245
29.0001	293
29.0075	300
29.0149	336
29.0223	337
29.0297	339
29.0371	349
29.0445	371
29.0519	364
29.0593	364
29.0667	369
29.0740	392
29.0814	388
29.0888	346
29.0962	350
29.1036	351
29.1110	320
29.1184	319
29.1258	314
29.1332	275
29.1406	290
29.1480	221
29.1554	247
29.1628	258
29.1702	238
29.1776	213
29.1850	207
29.1924	158
29.1998	176
29.2072	185
29.2146	166
29.2220	132
29.2293	147
29.2367	124
29.2441	118
29.2515	121
29.2589	120
29.2663	120
29.2737	103
29.2811	105
29.2885	110
29.2959	114
29.3033	124
29.3107	81
29.3181	99
29.3255	89
29.3329	95
29.3403	88
29.3477	99
29.3551	98
29.3625	83
29.3699	73
29.3773	110
29.3846	100
29.3920	84
29.3994	107
29.4068	79
29.4142	108
29.4216	75
29.4290	114
29.4364	96
29.4438	111
29.4512	78
29.4586	97
29.4660	82
29.4734	77
29.4808	85
29.4882	84
29.4956	95
29.5030	108
29.5104	91
29.5178	100
29.5252	106
29.5326	99
29.5399	84
29.5473	111
29.5547	109
29.5621	108
29.5695	115
29.5769	103
29.5843	100
29.5917	116
29.5991	113
29.6065	120
29.6139	110
29.6213	124
29.6287	114
29.6361	105
29.6435	122
29.6509	107
29.6583	105
29.6657	113
29.6731	99
29.6805	101
29.6879	103
29.6952	106
29.7026	93
29.7100	101
29.7174	76
29.7248	82
29.7322	91
29.7396	92
29.7470	81
29.7544	90
29.7618	73
29.7692	86
29.7766	97
29.7840	71
29.7914	101
29.7988	83
29.8062	80
29.8136	96
29.8210	88
29.8284	95
29.8358	85
29.8432	96
29.8505	84
29.8579	75
29.8653	82
29.8727	99
29.8801	81
29.8875	78
29.8949	75
29.9023	69
29.9097	78
29.9171	91
29.9245	95
29.9319	85
29.9393	86
29.9467	108
29.9541	103
29.9615	75
29.9689	88
29.9763	95
29.9837	101
29.9911	84
29.9985	93
30.0058	84
30.0132	80
30.0206	71
30.0280	80
30.0354	86
30.0428	95
30.0502	75
30.0576	84
30.0650	75
30.0724	86
30.0798	83
30.0872	94
30.0946	91
30.1020	79
30.1094	73
30.1168	76
30.1242	76
30.1316	68
30.1390	95
30.1464	92
30.1538	90
30.1612	95
30.1685	79
30.1759	87
30.1833	88
30.1907	99
30.1981	78
30.2055	94
30.2129	70
30.2203	85
30.2277	70
30.2351	82
30.2425	87
30.2499	88
30.2573	83
30.2647	75
30.2721	100
30.2795	87
30.2869	63
30.2943	90
30.3017	86
30.3091	115
30.3165	82
30.3238	89
30.3312	81
30.3386	89
30.3460	93
30.3534	72
30.3608	78
30.3682	86
30.3756	70
30.3830	80
30.3904	85
30.3978	82
30.4052	89
30.4126	88
30.4200	85
30.4274	82
30.4348	93
30.4422	83
30.4496	70
30.4570	75
30.4644	94
30.4718	93
30.4791	89
30.4865	88
30.4939	111
30.5013	105
30.5087	96
30.5161	117
30.5235	113
30.5309	115
30.5383	113
30.5457	102
30.5531	125
30.5605	111
30.5679	113
30.5753	145
30.5827	112
30.5901	137
30.5975	133
30.6049	125
30.6123	134
30.6197	123
30.6271	134
30.6344	128
30.6418	119
30.6492	131
30.6566	114
30.6640	134
30.6714	143
30.6788	130
30.6862	132
30.6936	151
30.7010	151
30.7084	131
30.7158	133
30.7232	130
30.7306	133
30.7380	122
30.7454	125
30.7528	111
30.7602	132
30.7676	119
30.7750	112
30.7824	116
30.7897	110
30.7971	113
30.8045	103
30.8119	94
30.8193	94
30.8267	94
30.8341	97
30.8415	119
30.8489	82
30.8563	98
30.8637	95
30.8711	84
30.8785	101
30.8859	88
30.8933	73
30.9007	80
30.9081	87
30.9155	86
30.9229	65
30.9303	79
30.9377	74
30.9450	80
30.9524	76
30.9598	78
30.9672	82
30.9746	70
30.9820	89
30.9894	83
30.9968	88
31.0042	83
31.0116	87
31.0190	82
31.0264	82
31.0338	78
31.0412	92
31.0486	87
31.0560	80
31.0634	87
31.0708	67
31.0782	75
31.0856	93
31.0930	82
31.1003	82
31.1077	69
31.1151	74
31.1225	88
31.1299	84
31.1373	84
31.1447	87
31.1521	88
31.1595	101
31.1669	85
31.1743	97
31.1817	91
31.1891	69
31.1965	93
31.2039	72
31.2113	80
31.2187	118
31.2261	91
31.2335	93
31.2409	89
31.2483	99
31.2556	80
31.2630	77
31.2704	95
31.2778	89
31.2852	87
31.2926	99
31.3000	107
31.3074	119
31.3148	102
31.3222	88
31.3296	108
31.3370	108
31.3444	104
31.3518	105
31.3592	121
31.3666	126
31.3740	122
31.3814	132
31.3888	149
31.3962	131
31.4036	164
31.4109	157
31.4183	176
31.4257	161
31.4331	186
31.4405	195
31.4479	186
31.4553	188
31.4627	211
31.4701	199
31.4775	246
31.4849	221
31.4923	215
31.4997	213
31.5071	241
31.5145	220
31.5219	221
31.5293	237
31.5367	238
31.5441	223
31.5515	214
31.5589	231
31.5662	217
31.5736	252
31.5810	213
31.5884	201
31.5958	199
31.6032	196
31.6106	213
31.6180	203
31.6254	203
31.6328	173
31.6402	166
31.6476	157
31.6550	184
31.6624	167
31.6698	179
31.6772	160
31.6846	167
31.6920	149
31.6994	167
31.7068	137
31.7142	132
31.7215	148
31.7289	148
31.7363	147
31.7437	137
31.7511	145
31.7585	120
31.7659	127
31.7733	111
31.7807	100
31.7881	113
31.7955	89
31.8029	120
31.8103	98
31.8177	98
31.8251	99
31.8325	100
31.8399	106
31.8473	93
31.8547	118
31.8621	83
31.8695	106
31.8769	98
31.8842	116
31.8916	113
31.8990	99
31.9064	114
31.9138	99
31.9212	131
31.9286	106
31.9360	114
31.9434	119
31.9508	112
31.9582	128
31.9656	133
31.9730	146
31.9804	124
31.9878	129
31.9952	131
32.0026	138
32.0100	117
32.0174	96
32.0248	120
32.0322	142
32.0395	136
32.0469	112
32.0543	106
32.0617	120
32.0691	112
32.0765	120
32.0839	106
32.0913	102
32.0987	101
32.1061	105
32.1135	101
32.1209	102
32.1283	93
32.1357	106
32.1431	91
32.1505	101
32.1579	81
32.1653	86
32.1727	80
32.1801	87
32.1875	97
32.1948	70
32.2022	87
32.2096	93
32.2170	95
32.2244	90
32.2318	95
32.2392	80
32.2466	80
32.2540	89
32.2614	65
32.2688	83
32.2762	92
32.2836	78
32.2910	95
32.2984	76
32.3058	71
32.3132	90
32.3206	81
32.3280	88
32.3354	73
32.3428	79
32.3501	66
32.3575	76
32.3649	81
32.3723	83
32.3797	93
32.3871	91
32.3945	86
32.4019	70
32.4093	79
32.4167	73
32.4241	82
32.4315	71
32.4389	73
32.4463	72
32.4537	78
32.4611	77
32.4685	89
32.4759	74
32.4833	87
32.4907	85
32.4981	81
32.5054	91
32.5128	87
32.5202	76
32.5276	86
32.5350	78
32.5424	78
32.5498	86
32.5572	83
32.5646	86
32.5720	72
32.5794	74
32.5868	73
32.5942	94
32.6016	89
32.6090	87
32.6164	89
32.6238	84
32.6312	79
32.6386	80
32.6460	79
32.6534	92
32.6607	68
32.6681	74
32.6755	85
32.6829	78
32.6903	97
32.6977	73
32.7051	73
32.7125	84
32.7199	92
32.7273	83
32.7347	84
32.7421	88
32.7495	92
32.7569	77
32.7643	79
32.7717	81
32.7791	80
32.7865	75
32.7939	72
32.8013	82
32.8087	79
32.8160	95
32.8234	97
32.8308	84
32.8382	96
32.8456	87
32.8530	84
32.8604	81
32.8678	93
32.8752	74
32.8826	80
32.8900	74
32.8974	92
32.9048	100
32.9122	91
32.9196	97
32.9270	81
32.9344	99
32.9418	99
32.9492	78
32.9566	97
32.9640	110
32.9713	86
32.9787	111
32.9861	80
32.9935	85
33.0009	111
33.0083	103
33.0157	89
33.0231	71
33.0305	86
33.0379	88
33.0453	77
33.0527	83
33.0601	94
33.0675	90
33.0749	84
33.0823	104
33.0897	85
33.0971	90
33.1045	88
33.1119	93
33.1193	97
33.1266	79
33.1340	103
33.1414	70
33.1488	78
33.1562	87
33.1636	89
33.1710	88
33.1784	84
33.1858	102
33.1932	104
33.2006	78
33.2080	92
33.2154	84
33.2228	61
33.2302	73
33.2376	89
33.2450	75
33.2524	87
33.2598	96
33.2672	103
33.2746	98
33.2819	103
33.2893	84
33.2967	114
33.3041	104
33.3115	88
33.3189	78
33.3263	108
33.3337	106
33.3411	91
33.3485	123
33.3559	85
33.3633	96
33.3707	106
33.3781	111
33.3855	107
33.3929	101
33.4003	116
33.4077	104
33.4151	129
33.4225	127
33.4299	120
33.4373	142
33.4446	148
33.4520	130
33.4594	148
33.4668	164
33.4742	172
33.4816	176
33.4890	168
33.4964	161
33.5038	178
33.5112	192
33.5186	170
33.5260	200
33.5334	216
33.5408	209
33.5482	258
33.5556	248
33.5630	298
33.5704	257
33.5778	301
33.5852	295
33.5926	284
33.5999	312
33.6073	319
33.6147	303
33.6221	367
33.6295	328
33.6369	376
33.6443	368
33.6517	348
33.6591	341
33.6665	334
33.6739	362
33.6813	315
33.6887	330
33.6961	307
33.7035	298
33.7109	290
33.7183	301
33.7257	268
33.7331	258
33.7405	236
33.7479	234
33.7552	220
33.7626	229
33.7700	214
33.7774	184
33.7848	173
33.7922	166
33.7996	164
33.8070	136
33.8144	138
33.8218	139
33.8292	131
33.8366	126
33.8440	125
33.8514	94
33.8588	111
33.8662	111
33.8736	113
33.8810	107
33.8884	95
33.8958	113
33.9032	105
33.9105	113
33.9179	91
33.9253	111
33.9327	125
33.9401	124
33.9475	111
33.9549	145
33.9623	145
33.9697	106
33.9771	129
33.9845	131
33.9919	125
33.9993	139
34.0067	141
34.0141	135
34.0215	132
34.0289	147
34.0363	145
34.0437	133
34.0511	165
34.0585	127
34.0658	152
34.0732	135
34.0806	150
34.0880	165
34.0954	156
34.1028	158
34.1102	147
34.1176	156
34.1250	172
34.1324	142
34.1398	130
34.1472	134
34.1546	114
34.1620	128
34.1694	117
34.1768	112
34.1842	128
34.1916	114
34.1990	133
34.2064	124
34.2138	117
34.2211	108
34.2285	118
34.2359	102
34.2433	110
34.2507	106
34.2581	117
34.2655	94
34.2729	104
34.2803	97
34.2877	101
34.2951	112
34.3025	105
34.3099	87
34.3173	96
34.3247	77
34.3321	68
34.3395	80
34.3469	73
34.3543	75
34.3617	79
34.3691	76
34.3764	68
34.3838	103
34.3912	85
34.3986	86
34.4060	90
34.4134	74
34.4208	75
34.4282	87
34.4356	80
34.4430	86
34.4504	80
34.4578	78
34.4652	88
34.4726	94
34.4800	80
34.4874	81
34.4948	73
34.5022	82
34.5096	74
34.5170	84
34.5244	83
34.5317	85
34.5391	90
34.5465	77
34.5539	99
34.5613	81
34.5687	85
34.5761	78
34.5835	69
34.5909	86
34.5983	80
34.6057	87
34.6131	78
34.6205	81
34.6279	94
34.6353	71
34.6427	85
34.6501	73
34.6575	75
34.6649	99
34.6723	80
34.6797	76
34.6870	60
34.6944	80
34.7018	76
34.7092	73
34.7166	66
34.7240	69
34.7314	75
34.7388	97
34.7462	71
34.7536	70
34.7610	75
34.7684	85
34.7758	78
34.7832	78
34.7906	79
34.7980	73
34.8054	67
34.8128	76
34.8202	81
34.8276	67
34.8350	85
34.8423	78
34.8497	73
34.8571	86
34.8645	91
34.8719	83
34.8793	77
34.8867	84
34.8941	95
34.9015	86
34.9089	87
34.9163	83
34.9237	97
34.9311	93
34.9385	88
34.9459	71
34.9533	94
34.9607	89
34.9681	103
34.9755	91
34.9829	92
34.9903	87
34.9977	81
35.0050	100
35.0124	105
35.0198	85
35.0272	99
35.0346	98
35.0420	85
35.0494	84
35.0568	75
35.0642	105
35.0716	97
35.0790	107
35.0864	104
35.0938	126
35.1012	108
35.1086	111
35.1160	116
35.1234	124
35.1308	121
35.1382	108
35.1456	114
35.1530	110
35.1603	110
35.1677	119
35.1751	122
35.1825	127
35.1899	106
35.1973	153
35.2047	144
35.2121	131
35.2195	120
35.2269	112
35.2343	125
35.2417	139
35.2491	135
35.2565	154
35.2639	165
35.2713	118
35.2787	129
35.2861	127
35.2935	124
35.3009	117
35.3083	108
35.3156	105
35.3230	89
35.3304	93
35.3378	119
35.3452	103
35.3526	93
35.3600	115
35.3674	110
35.3748	96
35.3822	97
35.3896	93
35.3970	83
35.4044	78
35.4118	82
35.4192	92
35.4266	104
35.4340	100
35.4414	94
35.4488	75
35.4562	85
35.4636	94
35.4709	120
35.4783	107
35.4857	101
35.4931	91
35.5005	106
35.5079	118
35.5153	104
35.5227	107
35.5301	114
35.5375	113
35.5449	121
35.5523	92
35.5597	111
35.5671	137
35.5745	111
35.5819	131
35.5893	125
35.5967	113
35.6041	112
35.6115	102
35.6189	117
35.6262	105
35.6336	101
35.6410	93
35.6484	95
35.6558	103
35.6632	99
35.6706	91
35.6780	109
35.6854	85
35.6928	111
35.7002	84
35.7076	89
35.7150	85
35.7224	83
35.7298	79
35.7372	84
35.7446	85
35.7520	88
35.7594	81
35.7668	87
35.7742	74
35.7815	65
35.7889	89
35.7963	86
35.8037	83
35.8111	89
35.8185	75
35.8259	94
35.8333	70
35.8407	71
35.8481	78
35.8555	78
35.8629	81
35.8703	81
35.8777	91
35.8851	88
35.8925	74
35.8999	84
35.9073	81
35.9147	87
35.9221	90
35.9295	85
35.9368	97
35.9442	90
35.9516	95
35.9590	84
35.9664	75
35.9738	85
35.9812	98
35.9886	118
35.9960	116
36.0034	88
36.0108	97
36.0182	114
36.0256	125
36.0330	127
36.0404	151
36.0478	144
36.0552	153
36.0626	177
36.0700	138
36.0774	173
36.0848	168
36.0921	172
36.0995	196
36.1069	195
36.1143	217
36.1217	195
36.1291	224
36.1365	222
36.1439	204
36.1513	222
36.1587	213
36.1661	214
36.1735	232
36.1809	229
36.1883	236
36.1957	233
36.2031	255
36.2105	226
36.2179	235
36.2253	192
36.2327	222
36.2401	221
36.2474	213
36.2548	193
36.2622	195
36.2696	195
36.2770	205
36.2844	192
36.2918	192
36.2992	171
36.3066	170
36.3140	177
36.3214	172
36.3288	176
36.3362	152
36.3436	172
36.3510	203
36.3584	195
36.3658	157
36.3732	166
36.3806	187
36.3880	149
36.3954	184
36.4027	174
36.4101	151
36.4175	183
36.4249	169
36.4323	159
36.4397	160
36.4471	142
36.4545	156
36.4619	131
36.4693	156
36.4767	134
36.4841	118
36.4915	132
36.4989	119
36.5063	125
36.5137	142
36.5211	125
36.5285	115
36.5359	108
36.5433	113
36.5507	110
36.5580	111
36.5654	90
36.5728	106
36.5802	108
36.5876	95
36.5950	110
36.6024	101
36.6098	95
36.6172	78
36.6246	95
36.6320	77
36.6394	81
36.6468	79
36.6542	83
36.6616	72
36.6690	91
36.6764	78
36.6838	85
36.6912	78
36.6986	67
36.7060	91
36.7134	82
36.7207	82
36.7281	73
36.7355	72
36.7429	81
36.7503	90
36.7577	77
36.7651	74
36.7725	75
36.7799	75
36.7873	93
36.7947	76
36.8021	94
36.8095	70
36.8169	88
36.8243	77
36.8317	73
36.8391	69
36.8465	74
36.8539	71
36.8613	97
36.8687	87
36.8760	79
36.8834	77
36.8908	67
36.8982	80
36.9056	82
36.9130	67
36.9204	84
36.9278	81
36.9352	96
36.9426	91
36.9500	68
36.9574	78
36.9648	94
36.9722	66
36.9796	75
36.9870	81
36.9944	84
37.0018	81
37.0092	61
37.0166	84
37.0240	58
37.0313	77
37.0387	95
37.0461	76
37.0535	84
37.0609	76
37.0683	87
37.0757	83
37.0831	90
37.0905	92
37.0979	99
37.1053	82
37.1127	104
37.1201	77
37.1275	97
37.1349	93
37.1423	90
37.1497	105
37.1571	105
37.1645	80
37.1719	98
37.1793	101
37.1866	109
37.1940	94
37.2014	92
37.2088	116
37.2162	103
37.2236	102
37.2310	113
37.2384	92
37.2458	104
37.2532	106
37.2606	110
37.2680	115
37.2754	102
37.2828	114
37.2902	106
37.2976	100
37.3050	98
37.3124	114
37.3198	101
37.3272	109
37.3346	99
37.3419	89
37.3493	107
37.3567	98
37.3641	72
37.3715	88
37.3789	80
37.3863	100
37.3937	79
37.4011	91
37.4085	92
37.4159	85
37.4233	91
37.4307	88
37.4381	62
37.4455	80
37.4529	85
37.4603	93
37.4677	90
37.4751	87
37.4825	80
37.4899	93
37.4972	70
37.5046	91
37.5120	88
37.5194	71
37.5268	81
37.5342	84
37.5416	83
37.5490	89
37.5564	86
37.5638	90
37.5712	85
37.5786	105
37.5860	103
37.5934	85
37.6008	101
37.6082	123
37.6156	112
37.6230	115
37.6304	98
37.6378	111
37.6452	128
37.6525	151
37.6599	120
37.6673	144
37.6747	118
37.6821	157
37.6895	146
37.6969	155
37.7043	145
37.7117	157
37.7191	154
37.7265	144
37.7339	159
37.7413	168
37.7487	180
37.7561	167
37.7635	172
37.7709	174
37.7783	169
37.7857	148
37.7931	158
37.8005	170
37.8078	191
37.8152	176
37.8226	167
37.8300	146
37.8374	158
37.8448	161
37.8522	130
37.8596	147
37.8670	155
37.8744	121
37.8818	137
37.8892	133
37.8966	108
37.9040	115
37.9114	102
37.9188	118
37.9262	106
37.9336	93
37.9410	110
37.9484	132
37.9558	108
37.9631	93
37.9705	90
37.9779	91
37.9853	99
37.9927	81
38.0001	85
38.0075	98
38.0149	84
38.0223	93
38.0297	81
38.0371	73
38.0445	77
38.0519	92
38.0593	69
38.0667	86
38.0741	95
38.0815	71
38.0889	99
38.0963	109
38.1037	82
38.1111	103
38.1184	79
38.1258	81
38.1332	96
38.1406	75
38.1480	79
38.1554	91
38.1628	90
38.1702	83
38.1776	99
38.1850	103
38.1924	79
38.1998	88
38.2072	99
38.2146	104
38.2220	86
38.2294	105
38.2368	91
38.2442	93
38.2516	94
38.2590	111
38.2664	106
38.2738	118
38.2811	108
38.2885	123
38.2959	116
38.3033	118
38.3107	119
38.3181	123
38.3255	121
38.3329	150
38.3403	145
38.3477	133
38.3551	146
38.3625	119
38.3699	126
38.3773	148
38.3847	154
38.3921	125
38.3995	148
38.4069	128
38.4143	128
38.4217	124
38.4291	156
38.4364	134
38.4438	157
38.4512	117
38.4586	129
38.4660	122
38.4734	145
38.4808	125
38.4882	143
38.4956	141
38.5030	139
38.5104	131
38.5178	154
38.5252	141
38.5326	154
38.5400	146
38.5474	143
38.5548	137
38.5622	129
38.5696	172
38.5770	143
38.5844	130
38.5917	143
38.5991	155
38.6065	124
38.6139	152
38.6213	142
38.6287	141
38.6361	146
38.6435	128
38.6509	123
38.6583	119
38.6657	128
38.6731	121
38.6805	122
38.6879	108
38.6953	127
38.7027	120
38.7101	97
38.7175	103
38.7249	103
38.7323	86
38.7397	92
38.7470	93
38.7544	80
38.7618	82
38.7692	87
38.7766	95
38.7840	95
38.7914	81
38.7988	73
38.8062	88
38.8136	84
38.8210	95
38.8284	82
38.8358	82
38.8432	94
38.8506	90
38.8580	100
38.8654	80
38.8728	70
38.8802	84
38.8876	99
38.8950	87
38.9023	83
38.9097	83
38.9171	70
38.9245	81
38.9319	85
38.9393	84
38.9467	81
38.9541	93
38.9615	76
38.9689	100
38.9763	69
38.9837	74
38.9911	99
38.9985	97
39.0059	84
39.0133	117
39.0207	85
39.0281	96
39.0355	93
39.0429	76
39.0503	96
39.0576	97
39.0650	87
39.0724	77
39.0798	92
39.0872	78
39.0946	85
39.1020	100
39.1094	91
39.1168	84
39.1242	96
39.1316	95
39.1390	92
39.1464	86
39.1538	73
39.1612	93
39.1686	78
39.1760	99
39.1834	120
39.1908	103
39.1982	101
39.2056	110
39.2129	97
39.2203	107
39.2277	108
39.2351	115
39.2425	115
39.2499	134
39.2573	133
39.2647	134
39.2721	132
39.2795	148
39.2869	121
39.2943	145
39.3017	187
39.3091	162
39.3165	156
39.3239	181
39.3313	165
39.3387	200
39.3461	168
39.3535	158
39.3609	170
39.3682	171
39.3756	197
39.3830	179
39.3904	190
39.3978	201
39.4052	188
39.4126	215
39.4200	184
39.4274	200
39.4348	187
39.4422	227
39.4496	191
39.4570	208
39.4644	191
39.4718	219
39.4792	170
39.4866	199
39.4940	160
39.5014	204
39.5088	170
39.5162	194
39.5235	198
39.5309	178
39.5383	173
39.5457	180
39.5531	168
39.5605	164
39.5679	157
39.5753	165
39.5827	140
39.5901	145
39.5975	152
39.6049	148
39.6123	136
39.6197	143
39.6271	140
39.6345	150
39.6419	150
39.6493	139
39.6567	148
39.6641	143
39.6715	119
39.6788	138
39.6862	132
39.6936	114
39.7010	122
39.7084	101
39.7158	119
39.7232	96
39.7306	96
39.7380	101
39.7454	108
39.7528	107
39.7602	98
39.7676	118
39.7750	100
39.7824	97
39.7898	118
39.7972	109
39.8046	114
39.8120	130
39.8194	130
39.8268	127
39.8342	114
39.8415	124
39.8489	138
39.8563	131
39.8637	117
39.8711	129
39.8785	117
39.8859	127
39.8933	135
39.9007	133
39.9081	123
39.9155	102
39.9229	125
39.9303	130
39.9377	124
39.9451	138
39.9525	131
39.9599	107
39.9673	121
39.9747	103
39.9821	125
39.9895	118
39.9968	113
