2.0000	87
2.0074	105
2.0148	97
2.0222	85
2.0296	94
2.0370	110
2.0444	81
2.0518	87
2.0592	90
2.0666	87
2.0740	101
2.0813	82
2.0887	105
2.0961	92
2.1035	111
2.1109	103
2.1183	90
2.1257	85
2.1331	75
2.1405	79
2.1479	102
2.1553	110
2.1627	96
2.1701	95
2.1775	78
2.1849	89
2.1923	98
2.1997	110
2.2071	108
2.2145	102
2.2219	98
2.2293	97
2.2366	104
2.2440	87
2.2514	102
2.2588	101
2.2662	99
2.2736	113
2.2810	95
2.2884	107
2.2958	93
2.3032	93
2.3106	96
2.3180	89
2.3254	91
2.3328	105
2.3402	90
2.3476	95
2.3550	92
2.3624	104
2.3698	91
2.3772	83
2.3846	102
2.3919	107
2.3993	113
2.4067	112
2.4141	100
2.4215	95
2.4289	87
2.4363	97
2.4437	83
2.4511	102
2.4585	86
2.4659	97
2.4733	106
2.4807	92
2.4881	101
2.4955	86
2.5029	93
2.5103	95
2.5177	86
2.5251	82
2.5325	89
2.5399	94
2.5472	88
2.5546	80
2.5620	88
2.5694	100
2.5768	91
2.5842	104
2.5916	91
2.5990	97
2.6064	96
2.6138	88
2.6212	78
2.6286	109
2.6360	74
2.6434	106
2.6508	104
2.6582	97
2.6656	105
2.6730	107
2.6804	94
2.6878	99
2.6952	100
2.7025	88
2.7099	73
2.7173	95
2.7247	84
2.7321	99
2.7395	71
2.7469	86
2.7543	85
2.7617	81
2.7691	73
2.7765	87
2.7839	95
2.7913	89
2.7987	86
2.8061	71
2.8135	91
2.8209	77
2.8283	78
2.8357	88
2.8431	100
2.8505	84
2.8579	89
2.8652	89
2.8726	82
2.8800	85
2.8874	78
2.8948	66
2.9022	89
2.9096	77
2.9170	85
2.9244	83
2.9318	65
2.9392	72
2.9466	97
2.9540	82
2.9614	83
2.9688	80
2.9762	83
2.9836	69
2.9910	71
2.9984	83
3.0058	99
3.0132	69
3.0205	85
3.0279	78
3.0353	84
3.0427	66
3.0501	53
3.0575	79
3.0649	66
3.0723	64
3.0797	71
3.0871	73
3.0945	64
3.1019	70
3.1093	68
3.1167	86
3.1241	85
3.1315	87
3.1389	71
3.1463	84
3.1537	76
3.1611	69
3.1685	76
3.1758	68
3.1832	73
3.1906	69
3.1980	74
3.2054	83
3.2128	81
3.2202	74
3.2276	76
3.2350	72
3.2424	65
3.2498	81
3.2572	66
3.2646	59
3.2720	69
3.2794	91
3.2868	75
3.2942	81
3.3016	85
3.3090	64
3.3164	77
3.3238	70
3.3311	65
3.3385	53
3.3459	68
3.3533	58
3.3607	67
3.3681	80
3.3755	74
3.3829	59
3.3903	71
3.3977	51
3.4051	76
3.4125	70
3.4199	66
3.4273	86
3.4347	83
3.4421	66
3.4495	56
3.4569	65
3.4643	68
3.4717	64
3.4791	64
3.4864	61
3.4938	71
3.5012	52
3.5086	55
3.5160	57
3.5234	57
3.5308	58
3.5382	60
3.5456	56
3.5530	72
3.5604	66
3.5678	71
3.5752	73
3.5826	71
3.5900	65
3.5974	73
3.6048	54
3.6122	64
3.6196	69
3.6270	70
3.6344	50
3.6417	57
3.6491	54
3.6565	67
3.6639	52
3.6713	69
3.6787	45
3.6861	62
3.6935	64
3.7009	54
3.7083	50
3.7157	66
3.7231	62
3.7305	70
3.7379	63
3.7453	72
3.7527	65
3.7601	71
3.7675	60
3.7749	57
3.7823	67
3.7897	40
3.7970	71
3.8044	46
3.8118	55
3.8192	49
3.8266	72
3.8340	57
3.8414	66
3.8488	59
3.8562	61
3.8636	62
3.8710	51
3.8784	51
3.8858	55
3.8932	53
3.9006	45
3.9080	45
3.9154	53
3.9228	56
3.9302	55
3.9376	48
3.9450	59
3.9523	52
3.9597	61
3.9671	58
3.9745	50
3.9819	59
3.9893	48
3.9967	41
4.0041	56
4.0115	50
4.0189	48
4.0263	64
4.0337	70
4.0411	46
4.0485	51
4.0559	39
4.0633	48
4.0707	60
4.0781	55
4.0855	51
4.0929	54
4.1003	45
4.1076	49
4.1150	50
4.1224	56
4.1298	62
4.1372	52
4.1446	42
4.1520	41
4.1594	52
4.1668	55
4.1742	50
4.1816	52
4.1890	46
4.1964	50
4.2038	50
4.2112	60
4.2186	42
4.2260	40
4.2334	48
4.2408	45
4.2482	46
4.2556	48
4.2629	49
4.2703	63
4.2777	53
4.2851	58
4.2925	55
4.2999	62
4.3073	48
4.3147	52
4.3221	43
4.3295	52
4.3369	44
4.3443	45
4.3517	44
4.3591	48
4.3665	48
4.3739	53
4.3813	49
4.3887	49
4.3961	42
4.4035	53
4.4109	60
4.4183	42
4.4256	32
4.4330	41
4.4404	48
4.4478	45
4.4552	43
4.4626	54
4.4700	49
4.4774	48
4.4848	47
4.4922	52
4.4996	41
4.5070	43
4.5144	51
4.5218	63
4.5292	45
4.5366	41
4.5440	40
4.5514	45
4.5588	42
4.5662	43
4.5736	52
4.5809	49
4.5883	48
4.5957	35
4.6031	47
4.6105	52
4.6179	45
4.6253	37
4.6327	40
4.6401	34
4.6475	55
4.6549	45
4.6623	57
4.6697	35
4.6771	55
4.6845	41
4.6919	51
4.6993	41
4.7067	40
4.7141	48
4.7215	43
4.7289	45
4.7362	33
4.7436	46
4.7510	46
4.7584	54
4.7658	53
4.7732	42
4.7806	47
4.7880	38
4.7954	41
4.8028	46
4.8102	51
4.8176	45
4.8250	46
4.8324	54
4.8398	42
4.8472	49
4.8546	44
4.8620	55
4.8694	39
4.8768	38
4.8842	51
4.8915	38
4.8989	55
4.9063	38
4.9137	45
4.9211	40
4.9285	36
4.9359	40
4.9433	46
4.9507	50
4.9581	49
4.9655	46
4.9729	41
4.9803	39
4.9877	38
4.9951	49
5.0025	35
5.0099	64
5.0173	43
5.0247	40
5.0321	47
5.0395	41
5.0468	55
5.0542	47
5.0616	44
5.0690	43
5.0764	38
5.0838	35
5.0912	36
5.0986	41
5.1060	44
5.1134	35
5.1208	36
5.1282	50
5.1356	37
5.1430	43
5.1504	45
5.1578	33
5.1652	43
5.1726	44
5.1800	49
5.1874	33
5.1948	49
5.2021	39
5.2095	44
5.2169	47
5.2243	48
5.2317	41
5.2391	40
5.2465	37
5.2539	43
5.2613	32
5.2687	49
5.2761	42
5.2835	33
5.2909	49
5.2983	42
5.3057	46
5.3131	47
5.3205	50
5.3279	45
5.3353	45
5.3427	45
5.3501	41
5.3574	34
5.3648	46
5.3722	47
5.3796	47
5.3870	37
5.3944	58
5.4018	46
5.4092	58
5.4166	50
5.4240	39
5.4314	48
5.4388	53
5.4462	55
5.4536	73
5.4610	56
5.4684	57
5.4758	49
5.4832	45
5.4906	52
5.4980	46
5.5054	43
5.5127	47
5.5201	53
5.5275	50
5.5349	43
5.5423	49
5.5497	53
5.5571	58
5.5645	46
5.5719	54
5.5793	36
5.5867	53
5.5941	46
5.6015	44
5.6089	50
5.6163	57
5.6237	54
5.6311	48
5.6385	61
5.6459	64
5.6533	54
5.6607	69
5.6680	65
5.6754	65
5.6828	55
5.6902	44
5.6976	59
5.7050	67
5.7124	59
5.7198	65
5.7272	76
5.7346	84
5.7420	91
5.7494	73
5.7568	92
5.7642	92
5.7716	84
5.7790	85
5.7864	80
5.7938	104
5.8012	99
5.8086	111
5.8160	121
5.8233	136
5.8307	117
5.8381	157
5.8455	157
5.8529	189
5.8603	190
5.8677	202
5.8751	218
5.8825	229
5.8899	237
5.8973	283
5.9047	276
5.9121	285
5.9195	301
5.9269	344
5.9343	384
5.9417	429
5.9491	477
5.9565	484
5.9639	588
5.9713	614
5.9786	685
5.9860	819
5.9934	1069
6.0008	1335
6.0082	1712
6.0156	2287
6.0230	3255
6.0304	4218
6.0378	5049
6.0452	5676
6.0526	5707
6.0600	5222
6.0674	4525
6.0748	3579
6.0822	2698
6.0896	2007
6.0970	1534
6.1044	1165
6.1118	891
6.1192	609
6.1266	524
6.1340	430
6.1413	292
6.1487	289
6.1561	209
6.1635	221
6.1709	196
6.1783	188
6.1857	172
6.1931	130
6.2005	117
6.2079	144
6.2153	115
6.2227	134
6.2301	116
6.2375	116
6.2449	110
6.2523	117
6.2597	96
6.2671	111
6.2745	102
6.2819	111
6.2893	99
6.2966	107
6.3040	83
6.3114	89
6.3188	101
6.3262	92
6.3336	89
6.3410	81
6.3484	89
6.3558	92
6.3632	93
6.3706	71
6.3780	80
6.3854	85
6.3928	83
6.4002	87
6.4076	87
6.4150	94
6.4224	82
6.4298	86
6.4372	89
6.4446	65
6.4519	77
6.4593	82
6.4667	76
6.4741	72
6.4815	76
6.4889	71
6.4963	81
6.5037	78
6.5111	84
6.5185	94
6.5259	66
6.5333	91
6.5407	65
6.5481	75
6.5555	78
6.5629	56
6.5703	69
6.5777	78
6.5851	75
6.5925	71
6.5999	81
6.6072	79
6.6146	74
6.6220	70
6.6294	69
6.6368	74
6.6442	82
6.6516	79
6.6590	65
6.6664	74
6.6738	80
6.6812	57
6.6886	58
6.6960	71
6.7034	64
6.7108	71
6.7182	73
6.7256	66
6.7330	49
6.7404	56
6.7478	69
6.7552	63
6.7625	60
6.7699	60
6.7773	71
6.7847	55
6.7921	72
6.7995	60
6.8069	68
6.8143	55
6.8217	48
6.8291	67
6.8365	59
6.8439	70
6.8513	64
6.8587	65
6.8661	57
6.8735	53
6.8809	65
6.8883	78
6.8957	49
6.9031	75
6.9105	65
6.9178	64
6.9252	38
6.9326	73
6.9400	71
6.9474	56
6.9548	44
6.9622	62
6.9696	60
6.9770	66
6.9844	62
6.9918	65
6.9992	60
7.0066	60
7.0140	59
7.0214	46
7.0288	67
7.0362	67
7.0436	53
7.0510	59
7.0584	63
7.0658	62
7.0731	48
7.0805	47
7.0879	45
7.0953	54
7.1027	65
7.1101	64
7.1175	57
7.1249	55
7.1323	60
7.1397	52
7.1471	47
7.1545	58
7.1619	56
7.1693	53
7.1767	58
7.1841	46
7.1915	59
7.1989	55
7.2063	63
7.2137	58
7.2211	55
7.2284	46
7.2358	58
7.2432	67
7.2506	60
7.2580	48
7.2654	53
7.2728	48
7.2802	55
7.2876	56
7.2950	56
7.3024	45
7.3098	53
7.3172	63
7.3246	50
7.3320	50
7.3394	48
7.3468	57
7.3542	41
7.3616	57
7.3690	60
7.3764	50
7.3837	47
7.3911	46
7.3985	52
7.4059	66
7.4133	53
7.4207	37
7.4281	46
7.4355	45
7.4429	72
7.4503	55
7.4577	40
7.4651	48
7.4725	60
7.4799	53
7.4873	47
7.4947	47
7.5021	60
7.5095	37
7.5169	65
7.5243	46
7.5317	50
7.5390	42
7.5464	58
7.5538	40
7.5612	51
7.5686	53
7.5760	53
7.5834	47
7.5908	62
7.5982	46
7.6056	54
7.6130	55
7.6204	61
7.6278	49
7.6352	62
7.6426	55
7.6500	49
7.6574	57
7.6648	51
7.6722	71
7.6796	47
7.6870	78
7.6944	69
7.7017	56
7.7091	59
7.7165	52
7.7239	74
7.7313	55
7.7387	53
7.7461	53
7.7535	52
7.7609	48
7.7683	54
7.7757	56
7.7831	51
7.7905	61
7.7979	42
7.8053	51
7.8127	57
7.8201	53
7.8275	62
7.8349	62
7.8423	44
7.8497	47
7.8570	50
7.8644	63
7.8718	47
7.8792	61
7.8866	67
7.8940	54
7.9014	52
7.9088	58
7.9162	40
7.9236	43
7.9310	50
7.9384	47
7.9458	50
7.9532	63
7.9606	58
7.9680	51
7.9754	57
7.9828	53
7.9902	57
7.9976	50
8.0050	46
8.0123	39
8.0197	54
8.0271	67
8.0345	54
8.0419	50
8.0493	41
8.0567	67
8.0641	61
8.0715	62
8.0789	64
8.0863	58
8.0937	54
8.1011	47
8.1085	60
8.1159	68
8.1233	58
8.1307	66
8.1381	57
8.1455	63
8.1529	78
8.1603	63
8.1676	66
8.1750	69
8.1824	65
8.1898	79
8.1972	61
8.2046	70
8.2120	81
8.2194	101
8.2268	88
8.2342	95
8.2416	130
8.2490	106
8.2564	124
8.2638	125
8.2712	138
8.2786	125
8.2860	144
8.2934	163
8.3008	156
8.3082	157
8.3156	196
8.3229	181
8.3303	202
8.3377	210
8.3451	224
8.3525	215
8.3599	262
8.3673	273
8.3747	292
8.3821	320
8.3895	359
8.3969	411
8.4043	423
8.4117	451
8.4191	527
8.4265	604
8.4339	646
8.4413	701
8.4487	782
8.4561	887
8.4635	1006
8.4709	1297
8.4782	1532
8.4856	1774
8.4930	2228
8.5004	2834
8.5078	3612
8.5152	4640
8.5226	5568
8.5300	6423
8.5374	6960
8.5448	7031
8.5522	6653
8.5596	5996
8.5670	5430
8.5744	4503
8.5818	3669
8.5892	3117
8.5966	2492
8.6040	2040
8.6114	1637
8.6188	1260
8.6262	975
8.6335	762
8.6409	605
8.6483	446
8.6557	370
8.6631	318
8.6705	249
8.6779	251
8.6853	203
8.6927	208
8.7001	183
8.7075	154
8.7149	148
8.7223	156
8.7297	159
8.7371	133
8.7445	146
8.7519	132
8.7593	141
8.7667	132
8.7741	137
8.7815	134
8.7888	121
8.7962	128
8.8036	121
8.8110	121
8.8184	117
8.8258	135
8.8332	116
8.8406	99
8.8480	100
8.8554	127
8.8628	113
8.8702	98
8.8776	96
8.8850	94
8.8924	98
8.8998	110
8.9072	109
8.9146	94
8.9220	95
8.9294	87
8.9368	112
8.9441	93
8.9515	88
8.9589	106
8.9663	95
8.9737	112
8.9811	82
8.9885	81
8.9959	78
9.0033	89
9.0107	81
9.0181	88
9.0255	77
9.0329	86
9.0403	84
9.0477	94
9.0551	96
9.0625	86
9.0699	89
9.0773	72
9.0847	78
9.0921	72
9.0994	79
9.1068	94
9.1142	77
9.1216	71
9.1290	95
9.1364	93
9.1438	94
9.1512	71
9.1586	89
9.1660	82
9.1734	79
9.1808	98
9.1882	78
9.1956	86
9.2030	82
9.2104	65
9.2178	67
9.2252	72
9.2326	61
9.2400	75
9.2474	80
9.2548	72
9.2621	75
9.2695	74
9.2769	80
9.2843	68
9.2917	85
9.2991	67
9.3065	81
9.3139	75
9.3213	65
9.3287	85
9.3361	80
9.3435	65
9.3509	79
9.3583	70
9.3657	65
9.3731	77
9.3805	79
9.3879	71
9.3953	71
9.4027	81
9.4101	67
9.4174	71
9.4248	68
9.4322	65
9.4396	66
9.4470	72
9.4544	74
9.4618	52
9.4692	73
9.4766	61
9.4840	63
9.4914	54
9.4988	49
9.5062	78
9.5136	64
9.5210	54
9.5284	75
9.5358	39
9.5432	61
9.5506	57
9.5580	60
9.5654	83
9.5727	63
9.5801	64
9.5875	69
9.5949	60
9.6023	77
9.6097	66
9.6171	77
9.6245	73
9.6319	67
9.6393	56
9.6467	73
9.6541	64
9.6615	69
9.6689	72
9.6763	62
9.6837	72
9.6911	72
9.6985	53
9.7059	66
9.7133	59
9.7207	60
9.7280	68
9.7354	65
9.7428	49
9.7502	56
9.7576	63
9.7650	63
9.7724	61
9.7798	50
9.7872	67
9.7946	66
9.8020	66
9.8094	64
9.8168	41
9.8242	74
9.8316	51
9.8390	67
9.8464	50
9.8538	56
9.8612	57
9.8686	51
9.8760	71
9.8833	64
9.8907	61
9.8981	69
9.9055	61
9.9129	68
9.9203	64
9.9277	65
9.9351	51
9.9425	48
9.9499	62
9.9573	64
9.9647	60
9.9721	54
9.9795	63
9.9869	67
9.9943	66
10.0017	61
10.0091	57
10.0165	49
10.0239	63
10.0313	60
10.0386	51
10.0460	79
10.0534	64
10.0608	55
10.0682	57
10.0756	55
10.0830	55
10.0904	37
10.0978	51
10.1052	57
10.1126	60
10.1200	66
10.1274	52
10.1348	59
10.1422	59
10.1496	63
10.1570	53
10.1644	68
10.1718	46
10.1792	53
10.1866	64
10.1939	46
10.2013	68
10.2087	58
10.2161	58
10.2235	54
10.2309	55
10.2383	52
10.2457	35
10.2531	50
10.2605	57
10.2679	65
10.2753	58
10.2827	61
10.2901	71
10.2975	58
10.3049	70
10.3123	62
10.3197	63
10.3271	55
10.3345	47
10.3419	56
10.3492	63
10.3566	66
10.3640	59
10.3714	45
10.3788	55
10.3862	47
10.3936	42
10.4010	53
10.4084	62
10.4158	56
10.4232	55
10.4306	37
10.4380	49
10.4454	52
10.4528	59
10.4602	58
10.4676	43
10.4750	49
10.4824	58
10.4898	66
10.4972	57
10.5045	52
10.5119	57
10.5193	59
10.5267	61
10.5341	42
10.5415	48
10.5489	48
10.5563	61
10.5637	47
10.5711	52
10.5785	62
10.5859	57
10.5933	66
10.6007	67
10.6081	57
10.6155	46
10.6229	61
10.6303	57
10.6377	56
10.6451	64
10.6525	56
10.6598	62
10.6672	56
10.6746	72
10.6820	57
10.6894	49
10.6968	61
10.7042	66
10.7116	63
10.7190	52
10.7264	54
10.7338	52
10.7412	67
10.7486	56
10.7560	54
10.7634	61
10.7708	52
10.7782	56
10.7856	49
10.7930	53
10.8004	59
10.8078	51
10.8151	68
10.8225	48
10.8299	42
10.8373	55
10.8447	56
10.8521	44
10.8595	43
10.8669	53
10.8743	54
10.8817	64
10.8891	49
10.8965	61
10.9039	58
10.9113	50
10.9187	53
10.9261	46
10.9335	52
10.9409	56
10.9483	47
10.9557	56
10.9631	49
10.9705	43
10.9778	54
10.9852	50
10.9926	46
11.0000	43
11.0074	53
11.0148	51
11.0222	50
11.0296	30
11.0370	44
11.0444	54
11.0518	43
11.0592	59
11.0666	61
11.0740	41
11.0814	55
11.0888	53
11.0962	47
11.1036	63
11.1110	47
11.1184	54
11.1258	51
11.1331	72
11.1405	62
11.1479	49
11.1553	60
11.1627	46
11.1701	58
11.1775	39
11.1849	57
11.1923	65
11.1997	65
11.2071	63
11.2145	65
11.2219	61
11.2293	63
11.2367	63
11.2441	56
11.2515	60
11.2589	40
11.2663	54
11.2737	62
11.2811	45
11.2884	48
11.2958	74
11.3032	49
11.3106	52
11.3180	53
11.3254	64
11.3328	49
11.3402	64
11.3476	66
11.3550	70
11.3624	64
11.3698	58
11.3772	57
11.3846	42
11.3920	62
11.3994	60
11.4068	62
11.4142	53
11.4216	76
11.4290	70
11.4364	55
11.4437	76
11.4511	72
11.4585	63
11.4659	88
11.4733	80
11.4807	85
11.4881	83
11.4955	58
11.5029	71
11.5103	81
11.5177	70
11.5251	81
11.5325	75
11.5399	95
11.5473	93
11.5547	83
11.5621	93
11.5695	86
11.5769	113
11.5843	104
11.5917	123
11.5990	135
11.6064	113
11.6138	142
11.6212	152
11.6286	215
11.6360	249
11.6434	272
11.6508	331
11.6582	352
11.6656	402
11.6730	506
11.6804	568
11.6878	681
11.6952	831
11.7026	1020
11.7100	1152
11.7174	1344
11.7248	1466
11.7322	1634
11.7396	1617
11.7470	1618
11.7543	1503
11.7617	1392
11.7691	1303
11.7765	1196
11.7839	975
11.7913	855
11.7987	683
11.8061	554
11.8135	471
11.8209	363
11.8283	275
11.8357	215
11.8431	155
11.8505	154
11.8579	125
11.8653	105
11.8727	89
11.8801	94
11.8875	120
11.8949	96
11.9023	103
11.9096	104
11.9170	92
11.9244	96
11.9318	111
11.9392	106
11.9466	116
11.9540	119
11.9614	112
11.9688	129
11.9762	124
11.9836	138
11.9910	191
11.9984	209
12.0058	296
12.0132	344
12.0206	435
12.0280	418
12.0354	407
12.0428	406
12.0502	352
12.0576	343
12.0649	252
12.0723	244
12.0797	213
12.0871	205
12.0945	169
12.1019	188
12.1093	135
12.1167	138
12.1241	143
12.1315	141
12.1389	135
12.1463	137
12.1537	136
12.1611	138
12.1685	154
12.1759	110
12.1833	165
12.1907	167
12.1981	189
12.2055	194
12.2129	186
12.2202	243
12.2276	268
12.2350	285
12.2424	352
12.2498	396
12.2572	499
12.2646	541
12.2720	750
12.2794	786
12.2868	921
12.2942	1000
12.3016	1105
12.3090	1217
12.3164	1326
12.3238	1596
12.3312	1962
12.3386	2266
12.3460	2695
12.3534	3145
12.3608	3556
12.3682	3683
12.3755	3800
12.3829	3556
12.3903	3362
12.3977	3217
12.4051	2854
12.4125	2551
12.4199	2132
12.4273	1760
12.4347	1556
12.4421	1384
12.4495	1208
12.4569	998
12.4643	945
12.4717	783
12.4791	699
12.4865	599
12.4939	497
12.5013	464
12.5087	389
12.5161	364
12.5235	332
12.5309	303
12.5382	242
12.5456	228
12.5530	200
12.5604	209
12.5678	147
12.5752	157
12.5826	156
12.5900	115
12.5974	115
12.6048	131
12.6122	120
12.6196	120
12.6270	114
12.6344	122
12.6418	105
12.6492	100
12.6566	117
12.6640	88
12.6714	121
12.6788	101
12.6862	86
12.6935	91
12.7009	88
12.7083	94
12.7157	101
12.7231	98
12.7305	91
12.7379	104
12.7453	93
12.7527	98
12.7601	97
12.7675	106
12.7749	83
12.7823	90
12.7897	102
12.7971	97
12.8045	106
12.8119	101
12.8193	112
12.8267	95
12.8341	72
12.8415	108
12.8488	104
12.8562	89
12.8636	107
12.8710	99
12.8784	119
12.8858	93
12.8932	99
12.9006	76
12.9080	82
12.9154	98
12.9228	93
12.9302	91
12.9376	93
12.9450	94
12.9524	88
12.9598	85
12.9672	86
12.9746	99
12.9820	99
12.9894	99
12.9968	105
13.0041	93
13.0115	85
13.0189	91
13.0263	108
13.0337	106
13.0411	101
13.0485	96
13.0559	91
13.0633	95
13.0707	115
13.0781	106
13.0855	113
13.0929	121
13.1003	120
13.1077	152
13.1151	155
13.1225	162
13.1299	154
13.1373	182
13.1447	177
13.1521	201
13.1594	229
13.1668	262
13.1742	305
13.1816	336
13.1890	379
13.1964	431
13.2038	563
13.2112	690
13.2186	781
13.2260	943
13.2334	1117
13.2408	1320
13.2482	1503
13.2556	1597
13.2630	1687
13.2704	1648
13.2778	1690
13.2852	1544
13.2926	1399
13.3000	1285
13.3074	1241
13.3147	1071
13.3221	909
13.3295	751
13.3369	542
13.3443	488
13.3517	400
13.3591	363
13.3665	280
13.3739	231
13.3813	211
13.3887	182
13.3961	169
13.4035	160
13.4109	150
13.4183	137
13.4257	131
13.4331	149
13.4405	129
13.4479	116
13.4553	136
13.4627	169
13.4700	135
13.4774	148
13.4848	130
13.4922	140
13.4996	138
13.5070	143
13.5144	156
13.5218	137
13.5292	165
13.5366	163
13.5440	180
13.5514	192
13.5588	202
13.5662	216
13.5736	259
13.5810	248
13.5884	292
13.5958	367
13.6032	398
13.6106	472
13.6180	542
13.6253	659
13.6327	871
13.6401	973
13.6475	1312
13.6549	1440
13.6623	1821
13.6697	2050
13.6771	2430
13.6845	2717
13.6919	2753
13.6993	2898
13.7067	2881
13.7141	2867
13.7215	2582
13.7289	2479
13.7363	2092
13.7437	1954
13.7511	1646
13.7585	1420
13.7659	1158
13.7733	979
13.7806	755
13.7880	618
13.7954	489
13.8028	393
13.8102	307
13.8176	249
13.8250	219
13.8324	180
13.8398	174
13.8472	145
13.8546	155
13.8620	130
13.8694	141
13.8768	138
13.8842	133
13.8916	120
13.8990	93
13.9064	86
13.9138	93
13.9212	116
13.9286	114
13.9359	92
13.9433	130
13.9507	103
13.9581	95
13.9655	110
13.9729	115
13.9803	131
13.9877	123
13.9951	110
14.0025	100
14.0099	115
14.0173	110
14.0247	88
14.0321	99
14.0395	101
14.0469	104
14.0543	96
14.0617	93
14.0691	99
14.0765	81
14.0839	108
14.0913	99
14.0986	100
14.1060	88
14.1134	74
14.1208	90
14.1282	87
14.1356	105
14.1430	92
14.1504	93
14.1578	90
14.1652	91
14.1726	93
14.1800	116
14.1874	100
14.1948	93
14.2022	77
14.2096	106
14.2170	81
14.2244	99
14.2318	97
14.2392	86
14.2466	112
14.2539	87
14.2613	94
14.2687	110
14.2761	89
14.2835	90
14.2909	83
14.2983	96
14.3057	83
14.3131	122
14.3205	119
14.3279	114
14.3353	114
14.3427	131
14.3501	111
14.3575	139
14.3649	131
14.3723	153
14.3797	163
14.3871	196
14.3945	200
14.4019	218
14.4092	250
14.4166	262
14.4240	290
14.4314	281
14.4388	291
14.4462	284
14.4536	252
14.4610	259
14.4684	241
14.4758	238
14.4832	206
14.4906	186
14.4980	177
14.5054	157
14.5128	134
14.5202	113
14.5276	114
14.5350	110
14.5424	101
14.5498	120
14.5572	90
14.5645	98
14.5719	103
14.5793	88
14.5867	90
14.5941	97
14.6015	99
14.6089	86
14.6163	77
14.6237	101
14.6311	93
14.6385	91
14.6459	81
14.6533	93
14.6607	103
14.6681	83
14.6755	101
14.6829	96
14.6903	106
14.6977	117
14.7051	131
14.7125	122
14.7198	126
14.7272	171
14.7346	169
14.7420	171
14.7494	212
14.7568	252
14.7642	265
14.7716	325
14.7790	353
14.7864	377
14.7938	437
14.8012	467
14.8086	494
14.8160	493
14.8234	484
14.8308	434
14.8382	419
14.8456	369
14.8530	371
14.8604	332
14.8678	313
14.8751	275
14.8825	230
14.8899	235
14.8973	194
14.9047	164
14.9121	140
14.9195	126
14.9269	107
14.9343	111
14.9417	109
14.9491	112
14.9565	93
14.9639	97
14.9713	104
14.9787	83
14.9861	117
14.9935	82
15.0009	81
15.0083	76
15.0157	78
15.0231	85
15.0304	90
15.0378	89
15.0452	82
15.0526	83
15.0600	82
15.0674	93
15.0748	98
15.0822	79
15.0896	85
15.0970	107
15.1044	85
15.1118	100
15.1192	112
15.1266	117
15.1340	106
15.1414	120
15.1488	110
15.1562	126
15.1636	158
15.1710	151
15.1784	169
15.1857	179
15.1931	196
15.2005	210
15.2079	238
15.2153	259
15.2227	304
15.2301	368
15.2375	360
15.2449	353
15.2523	392
15.2597	406
15.2671	391
15.2745	396
15.2819	399
15.2893	368
15.2967	337
15.3041	300
15.3115	280
15.3189	255
15.3263	190
15.3337	210
15.3410	175
15.3484	167
15.3558	128
15.3632	122
15.3706	99
15.3780	110
15.3854	102
15.3928	106
15.4002	100
15.4076	104
15.4150	78
15.4224	87
15.4298	89
15.4372	84
15.4446	90
15.4520	104
15.4594	101
15.4668	117
15.4742	100
15.4816	99
15.4890	88
15.4963	78
15.5037	117
15.5111	108
15.5185	96
15.5259	121
15.5333	132
15.5407	134
15.5481	152
15.5555	162
15.5629	168
15.5703	162
15.5777	163
15.5851	148
15.5925	155
15.5999	144
15.6073	146
15.6147	135
15.6221	122
15.6295	125
15.6369	115
15.6443	119
15.6516	94
15.6590	103
15.6664	101
15.6738	94
15.6812	82
15.6886	77
15.6960	94
15.7034	87
15.7108	94
15.7182	76
15.7256	65
15.7330	93
15.7404	75
15.7478	78
15.7552	79
15.7626	74
15.7700	83
15.7774	66
15.7848	72
15.7922	79
15.7996	75
15.8070	75
15.8143	88
15.8217	60
15.8291	83
15.8365	86
15.8439	74
15.8513	71
15.8587	72
15.8661	71
15.8735	72
15.8809	79
15.8883	89
15.8957	49
15.9031	70
15.9105	65
15.9179	59
15.9253	69
15.9327	85
15.9401	73
15.9475	81
15.9549	89
15.9623	62
15.9696	79
15.9770	85
15.9844	75
15.9918	86
15.9992	76
16.0066	88
16.0140	77
16.0214	72
16.0288	62
16.0362	72
16.0436	77
16.0510	83
16.0584	70
16.0658	71
16.0732	78
16.0806	66
16.0880	65
16.0954	80
16.1028	90
16.1102	55
16.1176	87
16.1249	73
16.1323	61
16.1397	76
16.1471	90
16.1545	83
16.1619	76
16.1693	65
16.1767	86
16.1841	85
16.1915	79
16.1989	66
16.2063	82
16.2137	84
16.2211	72
16.2285	60
16.2359	84
16.2433	88
16.2507	81
16.2581	81
16.2655	80
16.2729	78
16.2802	82
16.2876	76
16.2950	88
16.3024	88
16.3098	77
16.3172	70
16.3246	100
16.3320	68
16.3394	86
16.3468	97
16.3542	68
16.3616	86
16.3690	79
16.3764	88
16.3838	87
16.3912	70
16.3986	86
16.4060	80
16.4134	98
16.4208	79
16.4282	77
16.4355	88
16.4429	83
16.4503	88
16.4577	73
16.4651	85
16.4725	83
16.4799	96
16.4873	81
16.4947	94
16.5021	97
16.5095	95
16.5169	91
16.5243	91
16.5317	98
16.5391	81
16.5465	75
16.5539	85
16.5613	93
16.5687	98
16.5761	96
16.5835	91
16.5908	102
16.5982	106
16.6056	95
16.6130	101
16.6204	95
16.6278	97
16.6352	94
16.6426	114
16.6500	123
16.6574	112
16.6648	115
16.6722	100
16.6796	127
16.6870	121
16.6944	136
16.7018	127
16.7092	136
16.7166	151
16.7240	150
16.7314	160
16.7388	202
16.7461	178
16.7535	224
16.7609	254
16.7683	248
16.7757	315
16.7831	363
16.7905	427
16.7979	505
16.8053	618
16.8127	653
16.8201	771
16.8275	827
16.8349	961
16.8423	984
16.8497	1017
16.8571	993
16.8645	929
16.8719	961
16.8793	843
16.8867	824
16.8941	781
16.9014	694
16.9088	598
16.9162	587
16.9236	493
16.9310	440
16.9384	415
16.9458	348
16.9532	362
16.9606	401
16.9680	378
16.9754	409
16.9828	481
16.9902	528
16.9976	726
17.0050	910
17.0124	1248
17.0198	1544
17.0272	1787
17.0346	1919
17.0420	1965
17.0494	1975
17.0567	1780
17.0641	1806
17.0715	1778
17.0789	1528
17.0863	1428
17.0937	1257
17.1011	1040
17.1085	905
17.1159	759
17.1233	669
17.1307	502
17.1381	425
17.1455	345
17.1529	305
17.1603	265
17.1677	239
17.1751	184
17.1825	174
17.1899	149
17.1973	144
17.2047	134
17.2120	143
17.2194	123
17.2268	121
17.2342	119
17.2416	123
17.2490	113
17.2564	149
17.2638	124
17.2712	118
17.2786	126
17.2860	124
17.2934	138
17.3008	116
17.3082	115
17.3156	114
17.3230	116
17.3304	112
17.3378	93
17.3452	105
17.3526	97
17.3600	113
17.3674	107
17.3747	95
17.3821	120
17.3895	122
17.3969	121
17.4043	110
17.4117	111
17.4191	95
17.4265	116
17.4339	94
17.4413	117
17.4487	111
17.4561	117
17.4635	107
17.4709	89
17.4783	117
17.4857	120
17.4931	102
17.5005	119
17.5079	120
17.5153	109
17.5227	118
17.5300	126
17.5374	133
17.5448	144
17.5522	151
17.5596	175
17.5670	158
17.5744	174
17.5818	203
17.5892	226
17.5966	222
17.6040	249
17.6114	253
17.6188	295
17.6262	286
17.6336	310
17.6410	310
17.6484	325
17.6558	325
17.6632	307
17.6706	311
17.6780	313
17.6853	272
17.6927	269
17.7001	270
17.7075	259
17.7149	222
17.7223	266
17.7297	203
17.7371	217
17.7445	245
17.7519	224
17.7593	278
17.7667	302
17.7741	372
17.7815	389
17.7889	478
17.7963	520
17.8037	629
17.8111	718
17.8185	804
17.8259	893
17.8333	844
17.8406	1016
17.8480	1026
17.8554	1115
17.8628	1192
17.8702	1256
17.8776	1177
17.8850	1141
17.8924	1201
17.8998	1088
17.9072	1009
17.9146	971
17.9220	835
17.9294	786
17.9368	700
17.9442	602
17.9516	483
17.9590	431
17.9664	369
17.9738	335
17.9812	274
17.9886	282
17.9959	233
18.0033	209
18.0107	226
18.0181	201
18.0255	178
18.0329	193
18.0403	205
18.0477	188
18.0551	192
18.0625	178
18.0699	176
18.0773	166
18.0847	163
18.0921	167
18.0995	143
18.1069	136
18.1143	142
18.1217	113
18.1291	121
18.1365	123
18.1439	120
18.1512	112
18.1586	131
18.1660	122
18.1734	106
18.1808	119
18.1882	128
18.1956	111
18.2030	130
18.2104	116
18.2178	106
18.2252	111
18.2326	104
18.2400	122
18.2474	118
18.2548	127
18.2622	115
18.2696	128
18.2770	126
18.2844	115
18.2918	155
18.2992	129
18.3065	135
18.3139	130
18.3213	125
18.3287	105
18.3361	146
18.3435	128
18.3509	132
18.3583	127
18.3657	132
18.3731	140
18.3805	136
18.3879	141
18.3953	147
18.4027	144
18.4101	137
18.4175	172
18.4249	185
18.4323	175
18.4397	205
18.4471	168
18.4545	216
18.4618	186
18.4692	216
18.4766	253
18.4840	265
18.4914	278
18.4988	329
18.5062	345
18.5136	447
18.5210	525
18.5284	601
18.5358	761
18.5432	903
18.5506	1082
18.5580	1324
18.5654	1458
18.5728	1471
18.5802	1648
18.5876	1742
18.5950	1891
18.6024	1878
18.6098	1791
18.6171	1945
18.6245	1850
18.6319	1717
18.6393	1670
18.6467	1584
18.6541	1448
18.6615	1322
18.6689	1211
18.6763	1133
18.6837	990
18.6911	905
18.6985	788
18.7059	639
18.7133	618
18.7207	537
18.7281	409
18.7355	385
18.7429	348
18.7503	316
18.7577	257
18.7651	241
18.7724	227
18.7798	196
18.7872	205
18.7946	188
18.8020	178
18.8094	211
18.8168	201
18.8242	224
18.8316	182
18.8390	229
18.8464	239
18.8538	243
18.8612	277
18.8686	284
18.8760	272
18.8834	307
18.8908	346
18.8982	376
18.9056	432
18.9130	500
18.9204	548
18.9278	632
18.9351	739
18.9425	889
18.9499	931
18.9573	1041
18.9647	1080
18.9721	1105
18.9795	1176
18.9869	1177
18.9943	1105
19.0017	1078
19.0091	985
19.0165	931
19.0239	852
19.0313	753
19.0387	710
19.0461	591
19.0535	577
19.0609	500
19.0683	400
19.0757	362
19.0831	292
19.0904	289
19.0978	267
19.1052	202
19.1126	165
19.1200	191
19.1274	167
19.1348	172
19.1422	136
19.1496	169
19.1570	144
19.1644	139
19.1718	120
19.1792	146
19.1866	140
19.1940	133
19.2014	125
19.2088	145
19.2162	130
19.2236	122
19.2310	126
19.2384	141
19.2457	125
19.2531	126
19.2605	124
19.2679	132
19.2753	120
19.2827	103
19.2901	134
19.2975	111
19.3049	123
19.3123	127
19.3197	113
19.3271	116
19.3345	106
19.3419	113
19.3493	156
19.3567	144
19.3641	128
19.3715	147
19.3789	148
19.3863	160
19.3937	175
19.4010	174
19.4084	173
19.4158	229
19.4232	264
19.4306	252
19.4380	299
19.4454	290
19.4528	345
19.4602	409
19.4676	421
19.4750	497
19.4824	453
19.4898	479
19.4972	516
19.5046	531
19.5120	538
19.5194	554
19.5268	547
19.5342	491
19.5416	528
19.5490	495
19.5563	468
19.5637	488
19.5711	470
19.5785	457
19.5859	390
19.5933	406
19.6007	400
19.6081	329
19.6155	307
19.6229	285
19.6303	296
19.6377	240
19.6451	256
19.6525	197
19.6599	185
19.6673	175
19.6747	203
19.6821	143
19.6895	162
19.6969	127
19.7043	137
19.7116	145
19.7190	127
19.7264	134
19.7338	138
19.7412	121
19.7486	123
19.7560	103
19.7634	115
19.7708	115
19.7782	119
19.7856	102
19.7930	108
19.8004	103
19.8078	144
19.8152	114
19.8226	131
19.8300	143
19.8374	124
19.8448	136
19.8522	141
19.8596	126
19.8669	156
19.8743	137
19.8817	116
19.8891	135
19.8965	118
19.9039	148
19.9113	138
19.9187	115
19.9261	112
19.9335	135
19.9409	105
19.9483	105
19.9557	117
19.9631	129
19.9705	122
19.9779	118
19.9853	113
19.9927	124
20.0001	128
20.0075	113
20.0149	120
20.0222	106
20.0296	104
20.0370	106
20.0444	129
20.0518	112
20.0592	109
20.0666	133
20.0740	127
20.0814	131
20.0888	124
20.0962	115
20.1036	120
20.1110	136
20.1184	124
20.1258	125
20.1332	118
20.1406	125
20.1480	142
20.1554	106
20.1628	109
20.1702	129
20.1775	125
20.1849	136
20.1923	140
20.1997	116
20.2071	121
20.2145	115
20.2219	127
20.2293	120
20.2367	131
20.2441	149
20.2515	143
20.2589	142
20.2663	147
20.2737	156
20.2811	152
20.2885	172
20.2959	184
20.3033	205
20.3107	216
20.3181	203
20.3255	225
20.3328	216
20.3402	205
20.3476	213
20.3550	201
20.3624	228
20.3698	209
20.3772	237
20.3846	202
20.3920	192
20.3994	208
20.4068	218
20.4142	214
20.4216	240
20.4290	225
20.4364	256
20.4438	272
20.4512	343
20.4586	334
20.4660	420
20.4734	477
20.4808	597
20.4882	730
20.4955	854
20.5029	969
20.5103	1177
20.5177	1265
20.5251	1465
20.5325	1608
20.5399	1619
20.5473	1741
20.5547	1782
20.5621	1786
20.5695	1744
20.5769	1716
20.5843	1620
20.5917	1430
20.5991	1331
20.6065	1186
20.6139	1037
20.6213	901
20.6287	778
20.6361	660
20.6435	588
20.6508	469
20.6582	385
20.6656	331
20.6730	302
20.6804	257
20.6878	267
20.6952	223
20.7026	197
20.7100	221
20.7174	217
20.7248	211
20.7322	197
20.7396	209
20.7470	202
20.7544	205
20.7618	226
20.7692	232
20.7766	255
20.7840	247
20.7914	257
20.7988	287
20.8061	255
20.8135	282
20.8209	287
20.8283	295
20.8357	279
20.8431	303
20.8505	274
20.8579	292
20.8653	307
20.8727	383
20.8801	333
20.8875	360
20.8949	398
20.9023	401
20.9097	457
20.9171	509
20.9245	612
20.9319	644
20.9393	745
20.9467	793
20.9541	880
20.9614	924
20.9688	1002
20.9762	1070
20.9836	1074
20.9910	1132
20.9984	1079
21.0058	1028
21.0132	1021
21.0206	988
21.0280	934
21.0354	863
21.0428	743
21.0502	736
21.0576	618
21.0650	593
21.0724	516
21.0798	460
21.0872	420
21.0946	348
21.1020	304
21.1094	260
21.1167	276
21.1241	229
21.1315	220
21.1389	189
21.1463	179
21.1537	202
21.1611	220
21.1685	204
21.1759	168
21.1833	188
21.1907	185
21.1981	197
21.2055	169
21.2129	166
21.2203	198
21.2277	172
21.2351	184
21.2425	190
21.2499	163
21.2573	204
21.2647	191
21.2720	171
21.2794	197
21.2868	202
21.2942	178
21.3016	207
21.3090	199
21.3164	215
21.3238	174
21.3312	194
21.3386	193
21.3460	204
21.3534	211
21.3608	204
21.3682	230
21.3756	199
21.3830	209
21.3904	231
21.3978	227
21.4052	260
21.4126	236
21.4200	263
21.4273	293
21.4347	317
21.4421	336
21.4495	358
21.4569	421
21.4643	459
21.4717	504
21.4791	626
21.4865	790
21.4939	933
21.5013	1189
21.5087	1298
21.5161	1460
21.5235	1540
21.5309	1542
21.5383	1575
21.5457	1510
21.5531	1557
21.5605	1459
21.5679	1528
21.5753	1428
21.5826	1291
21.5900	1193
21.5974	1127
21.6048	1085
21.6122	947
21.6196	776
21.6270	701
21.6344	679
21.6418	626
21.6492	578
21.6566	586
21.6640	551
21.6714	578
21.6788	554
21.6862	575
21.6936	552
21.7010	566
21.7084	597
21.7158	613
21.7232	689
21.7306	654
21.7379	676
21.7453	683
21.7527	622
21.7601	634
21.7675	634
21.7749	608
21.7823	627
21.7897	605
21.7971	583
21.8045	554
21.8119	538
21.8193	557
21.8267	541
21.8341	550
21.8415	588
21.8489	541
21.8563	569
21.8637	608
21.8711	705
21.8785	761
21.8859	887
21.8932	1028
21.9006	1168
21.9080	1388
21.9154	1771
21.9228	2219
21.9302	2763
21.9376	3609
21.9450	4481
21.9524	5350
21.9598	6264
21.9672	6876
21.9746	7242
21.9820	7499
21.9894	7616
21.9968	7603
22.0042	7384
22.0116	7038
22.0190	6698
22.0264	6492
22.0338	5857
22.0412	5230
22.0485	4614
22.0559	3930
22.0633	3412
22.0707	2830
22.0781	2378
22.0855	1921
22.0929	1575
22.1003	1259
22.1077	1085
22.1151	902
22.1225	753
22.1299	633
22.1373	505
22.1447	416
22.1521	419
22.1595	366
22.1669	357
22.1743	328
22.1817	323
22.1891	309
22.1965	283
22.2039	254
22.2112	295
22.2186	246
22.2260	245
22.2334	248
22.2408	250
22.2482	251
22.2556	212
22.2630	228
22.2704	275
22.2778	265
22.2852	247
22.2926	213
22.3000	234
22.3074	242
22.3148	227
22.3222	204
22.3296	220
22.3370	216
22.3444	189
22.3518	190
22.3592	214
22.3665	202
22.3739	191
22.3813	207
22.3887	195
22.3961	212
22.4035	192
22.4109	205
22.4183	213
22.4257	179
22.4331	199
22.4405	200
22.4479	190
22.4553	194
22.4627	203
22.4701	171
22.4775	157
22.4849	175
22.4923	182
22.4997	168
22.5071	162
22.5145	202
22.5218	198
22.5292	207
22.5366	177
22.5440	188
22.5514	180
22.5588	195
22.5662	177
22.5736	164
22.5810	174
22.5884	172
22.5958	187
22.6032	179
22.6106	165
22.6180	158
22.6254	203
22.6328	182
22.6402	195
22.6476	186
22.6550	181
22.6624	189
22.6698	202
22.6771	209
22.6845	216
22.6919	242
22.6993	226
22.7067	285
22.7141	291
22.7215	385
22.7289	404
22.7363	484
22.7437	526
22.7511	620
22.7585	707
22.7659	816
22.7733	824
22.7807	797
22.7881	820
22.7955	822
22.8029	737
22.8103	727
22.8177	742
22.8251	669
22.8324	648
22.8398	610
22.8472	507
22.8546	450
22.8620	453
22.8694	360
22.8768	335
22.8842	359
22.8916	262
22.8990	295
22.9064	241
22.9138	219
22.9212	201
22.9286	200
22.9360	205
22.9434	179
22.9508	199
22.9582	163
22.9656	173
22.9730	174
22.9804	135
22.9877	187
22.9951	158
23.0025	159
23.0099	188
23.0173	172
23.0247	143
23.0321	175
23.0395	178
23.0469	154
23.0543	167
23.0617	156
23.0691	171
23.0765	153
23.0839	148
23.0913	136
23.0987	147
23.1061	142
23.1135	159
23.1209	163
23.1283	189
23.1357	146
23.1430	151
23.1504	175
23.1578	150
23.1652	168
23.1726	136
23.1800	170
23.1874	139
23.1948	161
23.2022	161
23.2096	152
23.2170	163
23.2244	157
23.2318	140
23.2392	152
23.2466	146
23.2540	172
23.2614	170
23.2688	160
23.2762	177
23.2836	158
23.2910	162
23.2983	188
23.3057	147
23.3131	147
23.3205	185
23.3279	170
23.3353	153
23.3427	160
23.3501	156
23.3575	183
23.3649	179
23.3723	173
23.3797	173
23.3871	171
23.3945	172
23.4019	187
23.4093	170
23.4167	213
23.4241	196
23.4315	232
23.4389	255
23.4463	275
23.4536	310
23.4610	408
23.4684	455
23.4758	484
23.4832	545
23.4906	526
23.4980	593
23.5054	534
23.5128	565
23.5202	578
23.5276	541
23.5350	561
23.5424	548
23.5498	519
23.5572	459
23.5646	455
23.5720	376
23.5794	366
23.5868	362
23.5942	326
23.6016	277
23.6089	247
23.6163	234
23.6237	225
23.6311	225
23.6385	211
23.6459	205
23.6533	192
23.6607	220
23.6681	168
23.6755	189
23.6829	170
23.6903	148
23.6977	143
23.7051	178
23.7125	172
23.7199	173
23.7273	165
23.7347	187
23.7421	178
23.7495	160
23.7569	167
23.7643	145
23.7716	167
23.7790	164
23.7864	180
23.7938	167
23.8012	169
23.8086	142
23.8160	200
23.8234	185
23.8308	189
23.8382	194
23.8456	178
23.8530	209
23.8604	207
23.8678	198
23.8752	197
23.8826	222
23.8900	220
23.8974	260
23.9048	266
23.9122	296
23.9196	306
23.9269	366
23.9343	388
23.9417	463
23.9491	553
23.9565	673
23.9639	796
23.9713	900
23.9787	1059
23.9861	1174
23.9935	1226
24.0009	1319
24.0083	1405
24.0157	1369
24.0231	1444
24.0305	1381
24.0379	1395
24.0453	1422
24.0527	1386
24.0601	1356
24.0675	1356
24.0749	1181
24.0822	1105
24.0896	1055
24.0970	1034
24.1044	916
24.1118	839
24.1192	756
24.1266	709
24.1340	605
24.1414	575
24.1488	515
24.1562	489
24.1636	440
24.1710	378
24.1784	366
24.1858	314
24.1932	322
24.2006	263
24.2080	249
24.2154	249
24.2228	232
24.2302	255
24.2375	217
24.2449	242
24.2523	268
24.2597	275
24.2671	275
24.2745	338
24.2819	324
24.2893	390
24.2967	407
24.3041	433
24.3115	440
24.3189	456
24.3263	421
24.3337	470
24.3411	478
24.3485	512
24.3559	605
24.3633	659
24.3707	788
24.3781	869
24.3855	928
24.3928	1025
24.4002	1051
24.4076	1081
24.4150	1084
24.4224	1091
24.4298	1025
24.4372	976
24.4446	990
24.4520	903
24.4594	876
24.4668	769
24.4742	729
24.4816	700
24.4890	615
24.4964	561
24.5038	525
24.5112	405
24.5186	414
24.5260	315
24.5334	324
24.5408	255
24.5481	270
24.5555	244
24.5629	244
24.5703	229
24.5777	228
24.5851	257
24.5925	207
24.5999	255
24.6073	249
24.6147	255
24.6221	251
24.6295	279
24.6369	241
24.6443	280
24.6517	273
24.6591	292
24.6665	301
24.6739	243
24.6813	279
24.6887	289
24.6961	269
24.7034	307
24.7108	299
24.7182	298
24.7256	340
24.7330	361
24.7404	363
24.7478	404
24.7552	476
24.7626	493
24.7700	546
24.7774	623
24.7848	667
24.7922	731
24.7996	695
24.8070	691
24.8144	672
24.8218	745
24.8292	722
24.8366	675
24.8440	660
24.8514	689
24.8587	652
24.8661	618
24.8735	658
24.8809	611
24.8883	586
24.8957	564
24.9031	534
24.9105	578
24.9179	566
24.9253	573
24.9327	705
24.9401	672
24.9475	686
24.9549	761
24.9623	838
24.9697	884
24.9771	916
24.9845	1058
24.9919	1164
24.9993	1195
25.0067	1278
25.0140	1403
25.0214	1356
25.0288	1449
25.0362	1383
25.0436	1301
25.0510	1294
25.0584	1225
25.0658	1088
25.0732	1013
25.0806	1023
25.0880	915
25.0954	866
25.1028	770
25.1102	737
25.1176	588
25.1250	528
25.1324	441
25.1398	419
25.1472	375
25.1546	381
25.1620	323
25.1693	305
25.1767	287
25.1841	220
25.1915	247
25.1989	206
25.2063	206
25.2137	214
25.2211	224
25.2285	202
25.2359	215
25.2433	199
25.2507	177
25.2581	194
25.2655	183
25.2729	189
25.2803	206
25.2877	214
25.2951	216
25.3025	212
25.3099	210
25.3173	205
25.3247	212
25.3320	222
25.3394	222
25.3468	206
25.3542	198
25.3616	215
25.3690	231
25.3764	244
25.3838	252
25.3912	254
25.3986	305
25.4060	326
25.4134	348
25.4208	358
25.4282	439
25.4356	512
25.4430	562
25.4504	683
25.4578	809
25.4652	975
25.4726	1057
25.4800	1253
25.4873	1383
25.4947	1484
25.5021	1508
25.5095	1583
25.5169	1500
25.5243	1561
25.5317	1524
25.5391	1412
25.5465	1323
25.5539	1364
25.5613	1178
25.5687	1284
25.5761	1259
25.5835	1214
25.5909	1255
25.5983	1193
25.6057	1282
25.6131	1277
25.6205	1403
25.6279	1399
25.6353	1273
25.6426	1291
25.6500	1108
25.6574	1075
25.6648	1010
25.6722	997
25.6796	968
25.6870	947
25.6944	904
25.7018	797
25.7092	736
25.7166	667
25.7240	569
25.7314	532
25.7388	442
25.7462	448
25.7536	395
25.7610	363
25.7684	355
25.7758	353
25.7832	336
25.7906	357
25.7979	320
25.8053	341
25.8127	357
25.8201	391
25.8275	349
25.8349	385
25.8423	449
25.8497	488
25.8571	453
25.8645	469
25.8719	533
25.8793	513
25.8867	537
25.8941	500
25.9015	487
25.9089	484
25.9163	429
25.9237	411
25.9311	423
25.9385	421
25.9459	360
25.9532	367
25.9606	346
25.9680	316
25.9754	316
25.9828	279
25.9902	246
25.9976	249
26.0050	222
26.0124	237
26.0198	194
26.0272	186
26.0346	209
26.0420	180
26.0494	200
26.0568	194
26.0642	188
26.0716	194
26.0790	201
26.0864	183
26.0938	203
26.1012	173
26.1085	182
26.1159	226
26.1233	197
26.1307	201
26.1381	195
26.1455	195
26.1529	180
26.1603	191
26.1677	199
26.1751	206
26.1825	188
26.1899	170
26.1973	199
26.2047	197
26.2121	173
26.2195	168
26.2269	186
26.2343	201
26.2417	213
26.2491	181
26.2565	238
26.2638	193
26.2712	208
26.2786	214
26.2860	198
26.2934	213
26.3008	197
26.3082	195
26.3156	231
26.3230	190
26.3304	237
26.3378	201
26.3452	241
26.3526	211
26.3600	276
26.3674	252
26.3748	273
26.3822	259
26.3896	298
26.3970	319
26.4044	346
26.4118	348
26.4191	426
26.4265	439
26.4339	509
26.4413	538
26.4487	601
26.4561	689
26.4635	875
26.4709	975
26.4783	1172
26.4857	1444
26.4931	1647
26.5005	1890
26.5079	2212
26.5153	2465
26.5227	2852
26.5301	2880
26.5375	3170
26.5449	3355
26.5523	3410
26.5597	3352
26.5671	3391
26.5744	3357
26.5818	3169
26.5892	3093
26.5966	2828
26.6040	2764
26.6114	2546
26.6188	2259
26.6262	2009
26.6336	1834
26.6410	1766
26.6484	1466
26.6558	1345
26.6632	1183
26.6706	1039
26.6780	942
26.6854	728
26.6928	616
26.7002	572
26.7076	543
26.7150	482
26.7224	431
26.7297	418
26.7371	405
26.7445	343
26.7519	309
26.7593	287
26.7667	271
26.7741	232
26.7815	244
26.7889	244
26.7963	224
26.8037	226
26.8111	220
26.8185	213
26.8259	223
26.8333	199
26.8407	207
26.8481	238
26.8555	218
26.8629	204
26.8703	207
26.8777	205
26.8850	210
26.8924	200
26.8998	190
26.9072	201
26.9146	190
26.9220	198
26.9294	197
26.9368	211
26.9442	203
26.9516	182
26.9590	190
26.9664	191
26.9738	205
26.9812	193
26.9886	189
26.9960	178
27.0034	200
27.0108	190
27.0182	177
27.0256	179
27.0330	195
27.0404	213
27.0477	185
27.0551	182
27.0625	195
27.0699	183
27.0773	184
27.0847	181
27.0921	166
27.0995	168
27.1069	184
27.1143	183
27.1217	177
27.1291	196
27.1365	199
27.1439	206
27.1513	163
27.1587	191
27.1661	184
27.1735	176
27.1809	199
27.1883	189
27.1957	211
27.2030	205
27.2104	190
27.2178	208
27.2252	192
27.2326	214
27.2400	218
27.2474	235
27.2548	248
27.2622	221
27.2696	221
27.2770	225
27.2844	238
27.2918	234
27.2992	237
27.3066	250
27.3140	284
27.3214	277
27.3288	294
27.3362	288
27.3436	307
27.3510	282
27.3583	334
27.3657	341
27.3731	329
27.3805	374
27.3879	380
27.3953	349
27.4027	446
27.4101	462
27.4175	579
27.4249	662
27.4323	703
27.4397	787
27.4471	921
27.4545	1094
27.4619	1219
27.4693	1414
27.4767	1469
27.4841	1463
27.4915	1543
27.4989	1543
27.5063	1491
27.5136	1433
27.5210	1395
27.5284	1264
27.5358	1225
27.5432	1242
27.5506	1117
27.5580	1005
27.5654	979
27.5728	880
27.5802	790
27.5876	731
27.5950	670
27.6024	530
27.6098	506
27.6172	498
27.6246	440
27.6320	411
27.6394	413
27.6468	383
27.6542	362
27.6616	316
27.6689	336
27.6763	339
27.6837	332
27.6911	329
27.6985	314
27.7059	285
27.7133	283
27.7207	266
27.7281	284
27.7355	268
27.7429	306
27.7503	267
27.7577	297
27.7651	282
27.7725	293
27.7799	266
27.7873	297
27.7947	308
27.8021	290
27.8095	318
27.8169	291
27.8242	333
27.8316	333
27.8390	320
27.8464	355
27.8538	341
27.8612	350
27.8686	379
27.8760	356
27.8834	390
27.8908	368
27.8982	414
27.9056	359
27.9130	384
27.9204	349
27.9278	326
27.9352	346
27.9426	271
27.9500	322
27.9574	300
27.9648	262
27.9722	264
27.9795	284
27.9869	264
27.9943	243
28.0017	292
28.0091	270
28.0165	264
28.0239	281
28.0313	308
28.0387	273
28.0461	278
28.0535	264
28.0609	264
28.0683	275
28.0757	259
28.0831	261
28.0905	276
28.0979	251
28.1053	262
28.1127	261
28.1201	228
28.1275	246
28.1348	258
28.1422	250
28.1496	228
28.1570	220
28.1644	202
28.1718	202
28.1792	207
28.1866	194
28.1940	236
28.2014	213
28.2088	210
28.2162	188
28.2236	205
28.2310	212
28.2384	250
28.2458	222
28.2532	200
28.2606	254
28.2680	259
28.2754	232
28.2828	232
28.2901	222
28.2975	223
28.3049	221
28.3123	229
28.3197	222
28.3271	214
28.3345	217
28.3419	212
28.3493	215
28.3567	249
28.3641	250
28.3715	316
28.3789	310
28.3863	330
28.3937	366
28.4011	414
28.4085	456
28.4159	551
28.4233	614
28.4307	713
28.4381	811
28.4454	834
28.4528	881
28.4602	902
28.4676	953
28.4750	986
28.4824	947
28.4898	979
28.4972	892
28.5046	877
28.5120	865
28.5194	824
28.5268	758
28.5342	760
28.5416	651
28.5490	608
28.5564	599
28.5638	518
28.5712	468
28.5786	448
28.5860	390
28.5934	351
28.6008	325
28.6081	293
28.6155	240
28.6229	234
28.6303	248
28.6377	218
28.6451	193
28.6525	191
28.6599	161
28.6673	168
28.6747	154
28.6821	147
28.6895	163
28.6969	161
28.7043	158
28.7117	174
28.7191	156
28.7265	175
28.7339	157
28.7413	158
28.7487	167
28.7561	164
28.7634	160
28.7708	150
28.7782	138
28.7856	160
28.7930	153
28.8004	164
28.8078	158
28.8152	154
28.8226	168
28.8300	166
28.8374	164
28.8448	153
28.8522	179
28.8596	186
28.8670	187
28.8744	167
28.8818	196
28.8892	179
28.8966	181
28.9040	213
28.9114	212
28.9187	207
28.9261	243
28.9335	205
28.9409	258
28.9483	288
28.9557	284
28.9631	298
28.9705	300
28.9779	354
28.9853	365
28.9927	421
29.0001	442
29.0075	499
29.0149	551
29.0223	582
29.0297	578
29.0371	588
29.0445	564
29.0519	557
29.0593	509
29.0667	517
29.0740	478
29.0814	500
29.0888	489
29.0962	430
29.1036	404
29.1110	398
29.1184	364
29.1258	316
29.1332	304
29.1406	276
29.1480	255
29.1554	241
29.1628	222
29.1702	231
29.1776	181
29.1850	179
29.1924	182
29.1998	193
29.2072	153
29.2146	169
29.2220	153
29.2293	132
29.2367	170
29.2441	160
29.2515	124
29.2589	142
29.2663	163
29.2737	132
29.2811	149
29.2885	155
29.2959	145
29.3033	147
29.3107	155
29.3181	161
29.3255	147
29.3329	146
29.3403	153
29.3477	128
29.3551	143
29.3625	157
29.3699	156
29.3773	153
29.3846	144
29.3920	157
29.3994	177
29.4068	168
29.4142	175
29.4216	168
29.4290	180
29.4364	180
29.4438	189
29.4512	201
29.4586	165
29.4660	169
29.4734	172
29.4808	189
29.4882	161
29.4956	199
29.5030	188
29.5104	158
29.5178	168
29.5252	199
29.5326	155
29.5399	166
29.5473	178
29.5547	170
29.5621	158
29.5695	167
29.5769	181
29.5843	169
29.5917	169
29.5991	144
29.6065	140
29.6139	165
29.6213	140
29.6287	168
29.6361	147
29.6435	138
29.6509	134
29.6583	163
29.6657	163
29.6731	156
29.6805	146
29.6879	153
29.6952	147
29.7026	156
29.7100	162
29.7174	194
29.7248	184
29.7322	190
29.7396	193
29.7470	175
29.7544	192
29.7618	173
29.7692	179
29.7766	189
29.7840	179
29.7914	164
29.7988	159
29.8062	182
29.8136	171
29.8210	184
29.8284	179
29.8358	199
29.8432	150
29.8505	168
29.8579	143
29.8653	164
29.8727	157
29.8801	148
29.8875	138
29.8949	147
29.9023	151
29.9097	156
29.9171	141
29.9245	155
29.9319	147
29.9393	139
29.9467	144
29.9541	124
29.9615	139
29.9689	136
29.9763	151
29.9837	155
29.9911	145
29.9985	159
30.0058	153
30.0132	151
30.0206	135
30.0280	171
30.0354	182
30.0428	179
30.0502	168
30.0576	156
30.0650	194
30.0724	201
30.0798	179
30.0872	214
30.0946	185
30.1020	217
30.1094	186
30.1168	191
30.1242	210
30.1316	227
30.1390	190
30.1464	190
30.1538	207
30.1612	199
30.1685	202
30.1759	186
30.1833	195
30.1907	197
30.1981	189
30.2055	237
30.2129	217
30.2203	239
30.2277	241
30.2351	234
30.2425	242
30.2499	222
30.2573	219
30.2647	214
30.2721	209
30.2795	208
30.2869	193
30.2943	202
30.3017	217
30.3091	216
30.3165	234
30.3238	212
30.3312	227
30.3386	210
30.3460	220
30.3534	172
30.3608	196
30.3682	201
30.3756	189
30.3830	196
30.3904	192
30.3978	217
30.4052	199
30.4126	242
30.4200	208
30.4274	222
30.4348	258
30.4422	247
30.4496	243
30.4570	276
30.4644	252
30.4718	244
30.4791	240
30.4865	245
30.4939	297
30.5013	257
30.5087	266
30.5161	296
30.5235	300
30.5309	271
30.5383	259
30.5457	283
30.5531	245
30.5605	265
30.5679	265
30.5753	258
30.5827	254
30.5901	241
30.5975	232
30.6049	239
30.6123	222
30.6197	240
30.6271	212
30.6344	245
30.6418	228
30.6492	216
30.6566	220
30.6640	226
30.6714	208
30.6788	233
30.6862	207
30.6936	214
30.7010	166
30.7084	199
30.7158	190
30.7232	185
30.7306	203
30.7380	188
30.7454	165
30.7528	175
30.7602	165
30.7676	168
30.7750	164
30.7824	160
30.7897	142
30.7971	165
30.8045	154
30.8119	148
30.8193	141
30.8267	149
30.8341	135
30.8415	116
30.8489	138
30.8563	128
30.8637	129
30.8711	128
30.8785	130
30.8859	137
30.8933	134
30.9007	129
30.9081	156
30.9155	131
30.9229	159
30.9303	129
30.9377	122
30.9450	135
30.9524	153
30.9598	146
30.9672	148
30.9746	130
30.9820	133
30.9894	117
30.9968	122
31.0042	146
31.0116	125
31.0190	136
31.0264	133
31.0338	130
31.0412	129
31.0486	156
31.0560	105
31.0634	161
31.0708	123
31.0782	129
31.0856	121
31.0930	144
31.1003	118
31.1077	119
31.1151	129
31.1225	98
31.1299	132
31.1373	121
31.1447	117
31.1521	130
31.1595	121
31.1669	135
31.1743	126
31.1817	119
31.1891	115
31.1965	122
31.2039	128
31.2113	125
31.2187	148
31.2261	128
31.2335	125
31.2409	132
31.2483	138
31.2556	117
31.2630	127
31.2704	122
31.2778	114
31.2852	149
31.2926	127
31.3000	121
31.3074	150
31.3148	153
31.3222	134
31.3296	146
31.3370	140
31.3444	153
31.3518	162
31.3592	168
31.3666	200
31.3740	208
31.3814	176
31.3888	204
31.3962	238
31.4036	265
31.4109	268
31.4183	288
31.4257	319
31.4331	335
31.4405	338
31.4479	335
31.4553	361
31.4627	343
31.4701	373
31.4775	346
31.4849	351
31.4923	351
31.4997	340
31.5071	289
31.5145	304
31.5219	303
31.5293	314
31.5367	260
31.5441	291
31.5515	285
31.5589	275
31.5662	256
31.5736	249
31.5810	262
31.5884	256
31.5958	250
31.6032	266
31.6106	247
31.6180	246
31.6254	237
31.6328	214
31.6402	198
31.6476	225
31.6550	186
31.6624	199
31.6698	184
31.6772	202
31.6846	199
31.6920	179
31.6994	182
31.7068	183
31.7142	185
31.7215	168
31.7289	175
31.7363	136
31.7437	144
31.7511	145
31.7585	130
31.7659	143
31.7733	139
31.7807	133
31.7881	124
31.7955	137
31.8029	130
31.8103	138
31.8177	129
31.8251	156
31.8325	129
31.8399	145
31.8473	148
31.8547	160
31.8621	156
31.8695	136
31.8769	142
31.8842	183
31.8916	149
31.8990	176
31.9064	196
31.9138	189
31.9212	210
31.9286	214
31.9360	198
31.9434	197
31.9508	221
31.9582	188
31.9656	228
31.9730	207
31.9804	187
31.9878	196
31.9952	223
32.0026	229
32.0100	208
32.0174	235
32.0248	221
32.0322	242
32.0395	222
32.0469	179
32.0543	200
32.0617	185
32.0691	189
32.0765	152
32.0839	157
32.0913	175
32.0987	160
32.1061	143
32.1135	147
32.1209	159
32.1283	124
32.1357	153
32.1431	130
32.1505	142
32.1579	130
32.1653	115
32.1727	140
32.1801	120
32.1875	128
32.1948	115
32.2022	113
32.2096	135
32.2170	138
32.2244	102
32.2318	119
32.2392	107
32.2466	112
32.2540	113
32.2614	97
32.2688	117
32.2762	128
32.2836	117
32.2910	112
32.2984	125
32.3058	107
32.3132	109
32.3206	108
32.3280	136
32.3354	102
32.3428	119
32.3501	112
32.3575	125
32.3649	124
32.3723	113
32.3797	120
32.3871	117
32.3945	117
32.4019	111
32.4093	94
32.4167	104
32.4241	121
32.4315	121
32.4389	114
32.4463	107
32.4537	130
32.4611	114
32.4685	121
32.4759	99
32.4833	116
32.4907	122
32.4981	108
32.5054	108
32.5128	107
32.5202	98
32.5276	113
32.5350	108
32.5424	122
32.5498	97
32.5572	107
32.5646	129
32.5720	121
32.5794	109
32.5868	119
32.5942	129
32.6016	107
32.6090	102
32.6164	109
32.6238	103
32.6312	122
32.6386	109
32.6460	105
32.6534	107
32.6607	128
32.6681	113
32.6755	114
32.6829	122
32.6903	142
32.6977	117
32.7051	115
32.7125	118
32.7199	122
32.7273	104
32.7347	109
32.7421	104
32.7495	101
32.7569	133
32.7643	118
32.7717	103
32.7791	108
32.7865	118
32.7939	111
32.8013	109
32.8087	135
32.8160	128
32.8234	101
32.8308	129
32.8382	126
32.8456	107
32.8530	121
32.8604	104
32.8678	146
32.8752	121
32.8826	124
32.8900	149
32.8974	158
32.9048	144
32.9122	134
32.9196	138
32.9270	136
32.9344	148
32.9418	131
32.9492	133
32.9566	125
32.9640	149
32.9713	143
32.9787	130
32.9861	122
32.9935	134
33.0009	146
33.0083	132
33.0157	107
33.0231	109
33.0305	130
33.0379	120
33.0453	109
33.0527	112
33.0601	129
33.0675	121
33.0749	111
33.0823	107
33.0897	115
33.0971	111
33.1045	117
33.1119	147
33.1193	119
33.1266	98
33.1340	126
33.1414	98
33.1488	161
33.1562	120
33.1636	128
33.1710	134
33.1784	118
33.1858	109
33.1932	122
33.2006	125
33.2080	132
33.2154	102
33.2228	146
33.2302	138
33.2376	137
33.2450	117
33.2524	141
33.2598	116
33.2672	124
33.2746	134
33.2819	120
33.2893	132
33.2967	112
33.3041	150
33.3115	140
33.3189	150
33.3263	143
33.3337	174
33.3411	158
33.3485	144
33.3559	184
33.3633	147
33.3707	141
33.3781	172
33.3855	161
33.3929	181
33.4003	153
33.4077	164
33.4151	187
33.4225	163
33.4299	191
33.4373	181
33.4446	179
33.4520	188
33.4594	165
33.4668	208
33.4742	181
33.4816	226
33.4890	256
33.4964	259
33.5038	272
33.5112	275
33.5186	344
33.5260	354
33.5334	416
33.5408	457
33.5482	427
33.5556	413
33.5630	480
33.5704	515
33.5778	506
33.5852	573
33.5926	509
33.5999	541
33.6073	566
33.6147	538
33.6221	555
33.6295	592
33.6369	506
33.6443	525
33.6517	493
33.6591	450
33.6665	431
33.6739	409
33.6813	379
33.6887	320
33.6961	361
33.7035	328
33.7109	291
33.7183	295
33.7257	258
33.7331	222
33.7405	229
33.7479	215
33.7552	192
33.7626	181
33.7700	184
33.7774	173
33.7848	141
33.7922	145
33.7996	126
33.8070	145
33.8144	144
33.8218	125
33.8292	122
33.8366	131
33.8440	127
33.8514	133
33.8588	122
33.8662	129
33.8736	128
33.8810	123
33.8884	129
33.8958	128
33.9032	139
33.9105	149
33.9179	132
33.9253	149
33.9327	148
33.9401	159
33.9475	146
33.9549	153
33.9623	149
33.9697	163
33.9771	169
33.9845	177
33.9919	157
33.9993	191
34.0067	181
34.0141	177
34.0215	178
34.0289	197
34.0363	181
34.0437	176
34.0511	180
34.0585	191
34.0658	196
34.0732	186
34.0806	176
34.0880	204
34.0954	195
34.1028	200
34.1102	211
34.1176	180
34.1250	186
34.1324	176
34.1398	181
34.1472	185
34.1546	163
34.1620	171
34.1694	166
34.1768	142
34.1842	174
34.1916	133
34.1990	154
34.2064	162
34.2138	137
34.2211	127
34.2285	129
34.2359	132
34.2433	125
34.2507	116
34.2581	105
34.2655	120
34.2729	130
34.2803	112
34.2877	104
34.2951	110
34.3025	113
34.3099	112
34.3173	103
34.3247	102
34.3321	106
34.3395	122
34.3469	103
34.3543	127
34.3617	108
34.3691	114
34.3764	122
34.3838	121
34.3912	135
34.3986	108
34.4060	116
34.4134	109
34.4208	108
34.4282	85
34.4356	108
34.4430	106
34.4504	143
34.4578	129
34.4652	114
34.4726	142
34.4800	109
34.4874	130
34.4948	126
34.5022	115
34.5096	131
34.5170	114
34.5244	115
34.5317	128
34.5391	121
34.5465	128
34.5539	140
34.5613	147
34.5687	105
34.5761	115
34.5835	118
34.5909	133
34.5983	134
34.6057	117
34.6131	123
34.6205	112
34.6279	123
34.6353	117
34.6427	106
34.6501	136
34.6575	132
34.6649	120
34.6723	131
34.6797	115
34.6870	123
34.6944	117
34.7018	119
34.7092	107
34.7166	147
34.7240	118
34.7314	115
34.7388	116
34.7462	115
34.7536	97
34.7610	117
34.7684	103
34.7758	120
34.7832	102
34.7906	109
34.7980	120
34.8054	121
34.8128	119
34.8202	106
34.8276	100
34.8350	121
34.8423	122
34.8497	127
34.8571	116
34.8645	127
34.8719	115
34.8793	111
34.8867	110
34.8941	132
34.9015	101
34.9089	113
34.9163	112
34.9237	136
34.9311	113
34.9385	134
34.9459	112
34.9533	115
34.9607	141
34.9681	142
34.9755	120
34.9829	130
34.9903	143
34.9977	145
35.0050	143
35.0124	149
35.0198	157
35.0272	159
35.0346	142
35.0420	142
35.0494	178
35.0568	144
35.0642	139
35.0716	147
35.0790	148
35.0864	148
35.0938	141
35.1012	140
35.1086	144
35.1160	133
35.1234	168
35.1308	162
35.1382	148
35.1456	170
35.1530	151
35.1603	177
35.1677	178
35.1751	195
35.1825	190
35.1899	196
35.1973	195
35.2047	213
35.2121	216
35.2195	188
35.2269	178
35.2343	203
35.2417	189
35.2491	170
35.2565	165
35.2639	141
35.2713	150
35.2787	147
35.2861	173
35.2935	156
35.3009	154
35.3083	150
35.3156	156
35.3230	153
35.3304	151
35.3378	161
35.3452	125
35.3526	128
35.3600	136
35.3674	117
35.3748	113
35.3822	117
35.3896	142
35.3970	110
35.4044	124
35.4118	118
35.4192	114
35.4266	118
35.4340	135
35.4414	151
35.4488	133
35.4562	127
35.4636	119
35.4709	136
35.4783	163
35.4857	177
35.4931	172
35.5005	168
35.5079	197
35.5153	166
35.5227	162
35.5301	167
35.5375	173
35.5449	183
35.5523	152
35.5597	205
35.5671	162
35.5745	178
35.5819	164
35.5893	197
35.5967	175
35.6041	151
35.6115	164
35.6189	156
35.6262	172
35.6336	160
35.6410	148
35.6484	143
35.6558	135
35.6632	122
35.6706	134
35.6780	131
35.6854	129
35.6928	101
35.7002	124
35.7076	120
35.7150	130
35.7224	112
35.7298	116
35.7372	109
35.7446	136
35.7520	133
35.7594	128
35.7668	116
35.7742	123
35.7815	119
35.7889	133
35.7963	125
35.8037	147
35.8111	122
35.8185	125
35.8259	137
35.8333	137
35.8407	135
35.8481	155
35.8555	128
35.8629	167
35.8703	137
35.8777	163
35.8851	168
35.8925	183
35.8999	191
35.9073	182
35.9147	194
35.9221	182
35.9295	195
35.9368	170
35.9442	188
35.9516	181
35.9590	193
35.9664	189
35.9738	163
35.9812	185
35.9886	182
35.9960	196
36.0034	226
36.0108	231
36.0182	230
36.0256	257
36.0330	266
36.0404	331
36.0478	370
36.0552	344
36.0626	380
36.0700	423
36.0774	443
36.0848	452
36.0921	398
36.0995	409
36.1069	342
36.1143	376
36.1217	335
36.1291	366
36.1365	394
36.1439	383
36.1513	391
36.1587	394
36.1661	363
36.1735	373
36.1809	352
36.1883	395
36.1957	401
36.2031	371
36.2105	352
36.2179	318
36.2253	305
36.2327	263
36.2401	302
36.2474	285
36.2548	244
36.2622	251
36.2696	254
36.2770	250
36.2844	243
36.2918	259
36.2992	216
36.3066	240
36.3140	262
36.3214	246
36.3288	279
36.3362	257
36.3436	296
36.3510	282
36.3584	304
36.3658	290
36.3732	304
36.3806	293
36.3880	301
36.3954	256
36.4027	255
36.4101	247
36.4175	274
36.4249	240
36.4323	275
36.4397	268
36.4471	375
36.4545	333
36.4619	328
36.4693	321
36.4767	313
36.4841	264
36.4915	249
36.4989	244
36.5063	208
36.5137	188
36.5211	192
36.5285	200
36.5359	179
36.5433	187
36.5507	195
36.5580	219
36.5654	188
36.5728	185
36.5802	147
36.5876	170
36.5950	149
36.6024	129
36.6098	124
36.6172	133
36.6246	135
36.6320	138
36.6394	122
36.6468	139
36.6542	146
36.6616	128
36.6690	127
36.6764	139
36.6838	124
36.6912	137
36.6986	127
36.7060	118
36.7134	127
36.7207	130
36.7281	123
36.7355	119
36.7429	123
36.7503	103
36.7577	99
36.7651	109
36.7725	102
36.7799	122
36.7873	137
36.7947	129
36.8021	121
36.8095	134
36.8169	119
36.8243	116
36.8317	122
36.8391	123
36.8465	129
36.8539	117
36.8613	94
36.8687	131
36.8760	114
36.8834	126
36.8908	93
36.8982	104
36.9056	114
36.9130	122
36.9204	96
36.9278	118
36.9352	111
36.9426	104
36.9500	105
36.9574	110
36.9648	100
36.9722	105
36.9796	106
36.9870	112
36.9944	111
37.0018	109
37.0092	114
37.0166	106
37.0240	113
37.0313	114
37.0387	142
37.0461	119
37.0535	127
37.0609	123
37.0683	113
37.0757	114
37.0831	133
37.0905	106
37.0979	124
37.1053	121
37.1127	133
37.1201	135
37.1275	134
37.1349	152
37.1423	160
37.1497	149
37.1571	142
37.1645	176
37.1719	182
37.1793	172
37.1866	196
37.1940	153
37.2014	203
37.2088	186
37.2162	146
37.2236	191
37.2310	179
37.2384	193
37.2458	162
37.2532	161
37.2606	157
37.2680	168
37.2754	141
37.2828	147
37.2902	166
37.2976	140
37.3050	138
37.3124	138
37.3198	119
37.3272	133
37.3346	137
37.3419	135
37.3493	161
37.3567	114
37.3641	135
37.3715	113
37.3789	124
37.3863	92
37.3937	116
37.4011	111
37.4085	118
37.4159	125
37.4233	117
37.4307	115
37.4381	109
37.4455	119
37.4529	93
37.4603	123
37.4677	99
37.4751	101
37.4825	125
37.4899	96
37.4972	134
37.5046	116
37.5120	125
37.5194	130
37.5268	107
37.5342	117
37.5416	120
37.5490	124
37.5564	142
37.5638	136
37.5712	149
37.5786	147
37.5860	142
37.5934	145
37.6008	144
37.6082	163
37.6156	177
37.6230	161
37.6304	168
37.6378	198
37.6452	207
37.6525	187
37.6599	199
37.6673	208
37.6747	229
37.6821	246
37.6895	250
37.6969	251
37.7043	274
37.7117	278
37.7191	276
37.7265	288
37.7339	279
37.7413	261
37.7487	283
37.7561	279
37.7635	239
37.7709	267
37.7783	248
37.7857	220
37.7931	187
37.8005	196
37.8078	198
37.8152	182
37.8226	191
37.8300	212
37.8374	180
37.8448	170
37.8522	214
37.8596	189
37.8670	171
37.8744	182
37.8818	135
37.8892	149
37.8966	155
37.9040	148
37.9114	145
37.9188	161
37.9262	135
37.9336	126
37.9410	132
37.9484	112
37.9558	105
37.9631	139
37.9705	147
37.9779	142
37.9853	112
37.9927	131
38.0001	133
38.0075	121
38.0149	133
38.0223	129
38.0297	135
38.0371	121
38.0445	116
38.0519	134
38.0593	121
38.0667	119
38.0741	120
38.0815	132
38.0889	117
38.0963	113
38.1037	125
38.1111	118
38.1184	126
38.1258	109
38.1332	116
38.1406	100
38.1480	112
38.1554	120
38.1628	112
38.1702	137
38.1776	126
38.1850	98
38.1924	118
38.1998	140
38.2072	122
38.2146	94
38.2220	138
38.2294	130
38.2368	140
38.2442	128
38.2516	140
38.2590	143
38.2664	126
38.2738	161
38.2811	133
38.2885	159
38.2959	158
38.3033	164
38.3107	191
38.3181	186
38.3255	229
38.3329	200
38.3403	179
38.3477	206
38.3551	175
38.3625	201
38.3699	190
38.3773	213
38.3847	209
38.3921	186
38.3995	191
38.4069	182
38.4143	180
38.4217	203
38.4291	175
38.4364	170
38.4438	200
38.4512	185
38.4586	192
38.4660	152
38.4734	174
38.4808	177
38.4882	195
38.4956	190
38.5030	201
38.5104	198
38.5178	190
38.5252	203
38.5326	207
38.5400	185
38.5474	211
38.5548	192
38.5622	207
38.5696	189
38.5770	212
38.5844	189
38.5917	179
38.5991	195
38.6065	174
38.6139	195
38.6213	176
38.6287	165
38.6361	171
38.6435	164
38.6509	137
38.6583	148
38.6657	145
38.6731	150
38.6805	138
38.6879	153
38.6953	135
38.7027	125
38.7101	129
38.7175	132
38.7249	124
38.7323	127
38.7397	121
38.7470	132
38.7544	128
38.7618	128
38.7692	142
38.7766	130
38.7840	115
38.7914	106
38.7988	112
38.8062	124
38.8136	107
38.8210	110
38.8284	130
38.8358	125
38.8432	138
38.8506	115
38.8580	122
38.8654	113
38.8728	124
38.8802	145
38.8876	122
38.8950	132
38.9023	130
38.9097	113
38.9171	122
38.9245	109
38.9319	129
38.9393	141
38.9467	117
38.9541	111
38.9615	124
38.9689	120
38.9763	122
38.9837	106
38.9911	113
38.9985	134
39.0059	102
39.0133	124
39.0207	144
39.0281	126
39.0355	107
39.0429	118
39.0503	130
39.0576	131
39.0650	130
39.0724	119
39.0798	135
39.0872	150
39.0946	137
39.1020	144
39.1094	143
39.1168	126
39.1242	143
39.1316	145
39.1390	126
39.1464	150
39.1538	139
39.1612	168
39.1686	150
39.1760	153
39.1834	167
39.1908	152
39.1982	157
39.2056	175
39.2129	173
39.2203	200
39.2277	164
39.2351	205
39.2425	202
39.2499	237
39.2573	247
39.2647	272
39.2721	319
39.2795	341
39.2869	388
39.2943	380
39.3017	415
39.3091	386
39.3165	465
39.3239	414
39.3313	409
39.3387	371
39.3461	342
39.3535	369
39.3609	382
39.3682	343
39.3756	333
39.3830	344
39.3904	376
39.3978	378
39.4052	394
39.4126	396
39.4200	387
39.4274	369
39.4348	376
39.4422	375
39.4496	341
39.4570	320
39.4644	314
39.4718	311
39.4792	323
39.4866	325
39.4940	288
39.5014	296
39.5088	299
39.5162	317
39.5235	280
39.5309	315
39.5383	279
39.5457	276
39.5531	276
39.5605	252
39.5679	261
39.5753	249
39.5827	220
39.5901	229
39.5975	227
39.6049	230
39.6123	212
39.6197	203
39.6271	166
39.6345	157
39.6419	165
39.6493	171
39.6567	175
39.6641	159
39.6715	155
39.6788	170
39.6862	138
39.6936	158
39.7010	134
39.7084	144
39.7158	136
39.7232	137
39.7306	148
39.7380	124
39.7454	141
39.7528	134
39.7602	141
39.7676	146
39.7750	136
39.7824	145
39.7898	141
39.7972	140
39.8046	151
39.8120	150
39.8194	184
39.8268	170
39.8342	185
39.8415	174
39.8489	159
39.8563	169
39.8637	166
39.8711	164
39.8785	181
39.8859	172
39.8933	153
39.9007	139
39.9081	173
39.9155	170
39.9229	155
39.9303	147
39.9377	168
39.9451	173
39.9525	166
39.9599	175
39.9673	141
39.9747	163
39.9821	147
39.9895	159
39.9968	135
