2.0000	182
2.0074	182
2.0148	178
2.0222	175
2.0296	211
2.0370	157
2.0444	203
2.0518	198
2.0592	179
2.0666	199
2.0740	189
2.0813	209
2.0887	190
2.0961	179
2.1035	192
2.1109	192
2.1183	182
2.1257	184
2.1331	171
2.1405	184
2.1479	163
2.1553	205
2.1627	206
2.1701	179
2.1775	173
2.1849	189
2.1923	192
2.1997	186
2.2071	183
2.2145	207
2.2219	181
2.2293	181
2.2366	179
2.2440	178
2.2514	187
2.2588	185
2.2662	179
2.2736	207
2.2810	204
2.2884	186
2.2958	175
2.3032	200
2.3106	194
2.3180	180
2.3254	174
2.3328	184
2.3402	205
2.3476	183
2.3550	183
2.3624	191
2.3698	166
2.3772	186
2.3846	181
2.3919	170
2.3993	202
2.4067	191
2.4141	192
2.4215	172
2.4289	205
2.4363	182
2.4437	175
2.4511	180
2.4585	191
2.4659	178
2.4733	181
2.4807	167
2.4881	189
2.4955	157
2.5029	185
2.5103	170
2.5177	188
2.5251	193
2.5325	172
2.5399	173
2.5472	161
2.5546	182
2.5620	172
2.5694	173
2.5768	177
2.5842	185
2.5916	172
2.5990	185
2.6064	204
2.6138	172
2.6212	170
2.6286	205
2.6360	174
2.6434	170
2.6508	189
2.6582	193
2.6656	180
2.6730	175
2.6804	180
2.6878	154
2.6952	177
2.7025	174
2.7099	190
2.7173	188
2.7247	201
2.7321	182
2.7395	170
2.7469	146
2.7543	185
2.7617	203
2.7691	161
2.7765	190
2.7839	171
2.7913	183
2.7987	173
2.8061	160
2.8135	172
2.8209	183
2.8283	184
2.8357	179
2.8431	161
2.8505	164
2.8579	165
2.8652	178
2.8726	175
2.8800	184
2.8874	168
2.8948	189
2.9022	180
2.9096	170
2.9170	178
2.9244	166
2.9318	170
2.9392	157
2.9466	172
2.9540	190
2.9614	155
2.9688	158
2.9762	151
2.9836	168
2.9910	185
2.9984	191
3.0058	203
3.0132	178
3.0205	150
3.0279	180
3.0353	149
3.0427	177
3.0501	133
3.0575	189
3.0649	137
3.0723	183
3.0797	151
3.0871	164
3.0945	168
3.1019	164
3.1093	146
3.1167	173
3.1241	172
3.1315	155
3.1389	163
3.1463	195
3.1537	164
3.1611	154
3.1685	153
3.1758	175
3.1832	172
3.1906	161
3.1980	158
3.2054	191
3.2128	171
3.2202	170
3.2276	159
3.2350	163
3.2424	162
3.2498	144
3.2572	186
3.2646	164
3.2720	161
3.2794	148
3.2868	155
3.2942	189
3.3016	172
3.3090	158
3.3164	146
3.3238	165
3.3311	162
3.3385	184
3.3459	172
3.3533	180
3.3607	170
3.3681	172
3.3755	143
3.3829	186
3.3903	170
3.3977	159
3.4051	191
3.4125	167
3.4199	150
3.4273	175
3.4347	166
3.4421	142
3.4495	166
3.4569	171
3.4643	149
3.4717	159
3.4791	167
3.4864	175
3.4938	159
3.5012	164
3.5086	145
3.5160	137
3.5234	150
3.5308	168
3.5382	143
3.5456	154
3.5530	154
3.5604	174
3.5678	175
3.5752	180
3.5826	136
3.5900	155
3.5974	155
3.6048	154
3.6122	176
3.6196	142
3.6270	133
3.6344	165
3.6417	156
3.6491	158
3.6565	162
3.6639	172
3.6713	142
3.6787	133
3.6861	142
3.6935	154
3.7009	149
3.7083	149
3.7157	158
3.7231	158
3.7305	154
3.7379	162
3.7453	156
3.7527	158
3.7601	155
3.7675	141
3.7749	164
3.7823	168
3.7897	161
3.7970	143
3.8044	172
3.8118	163
3.8192	143
3.8266	147
3.8340	128
3.8414	157
3.8488	138
3.8562	153
3.8636	153
3.8710	127
3.8784	149
3.8858	143
3.8932	136
3.9006	133
3.9080	140
3.9154	155
3.9228	140
3.9302	141
3.9376	151
3.9450	143
3.9523	129
3.9597	139
3.9671	151
3.9745	148
3.9819	128
3.9893	126
3.9967	151
4.0041	145
4.0115	141
4.0189	149
4.0263	124
4.0337	161
4.0411	122
4.0485	131
4.0559	147
4.0633	153
4.0707	153
4.0781	131
4.0855	128
4.0929	128
4.1003	132
4.1076	132
4.1150	125
4.1224	109
4.1298	136
4.1372	113
4.1446	145
4.1520	124
4.1594	135
4.1668	136
4.1742	129
4.1816	126
4.1890	139
4.1964	129
4.2038	118
4.2112	129
4.2186	108
4.2260	139
4.2334	141
4.2408	111
4.2482	131
4.2556	109
4.2629	121
4.2703	134
4.2777	141
4.2851	120
4.2925	125
4.2999	122
4.3073	132
4.3147	126
4.3221	114
4.3295	159
4.3369	125
4.3443	117
4.3517	130
4.3591	124
4.3665	140
4.3739	130
4.3813	134
4.3887	104
4.3961	123
4.4035	134
4.4109	125
4.4183	97
4.4256	129
4.4330	131
4.4404	133
4.4478	129
4.4552	116
4.4626	131
4.4700	129
4.4774	119
4.4848	123
4.4922	101
4.4996	89
4.5070	118
4.5144	120
4.5218	106
4.5292	118
4.5366	128
4.5440	131
4.5514	114
4.5588	121
4.5662	134
4.5736	105
4.5809	116
4.5883	93
4.5957	116
4.6031	122
4.6105	119
4.6179	116
4.6253	104
4.6327	118
4.6401	87
4.6475	113
4.6549	106
4.6623	109
4.6697	116
4.6771	104
4.6845	113
4.6919	109
4.6993	109
4.7067	115
4.7141	97
4.7215	122
4.7289	126
4.7362	112
4.7436	109
4.7510	122
4.7584	104
4.7658	96
4.7732	120
4.7806	113
4.7880	111
4.7954	103
4.8028	119
4.8102	118
4.8176	104
4.8250	97
4.8324	103
4.8398	103
4.8472	111
4.8546	124
4.8620	102
4.8694	117
4.8768	94
4.8842	106
4.8915	97
4.8989	116
4.9063	101
4.9137	125
4.9211	92
4.9285	103
4.9359	96
4.9433	100
4.9507	120
4.9581	95
4.9655	112
4.9729	115
4.9803	107
4.9877	112
4.9951	103
5.0025	102
5.0099	105
5.0173	107
5.0247	101
5.0321	116
5.0395	109
5.0468	113
5.0542	115
5.0616	85
5.0690	90
5.0764	86
5.0838	108
5.0912	110
5.0986	102
5.1060	101
5.1134	104
5.1208	93
5.1282	107
5.1356	104
5.1430	100
5.1504	118
5.1578	95
5.1652	102
5.1726	106
5.1800	102
5.1874	103
5.1948	99
5.2021	105
5.2095	116
5.2169	76
5.2243	93
5.2317	97
5.2391	95
5.2465	104
5.2539	108
5.2613	93
5.2687	98
5.2761	112
5.2835	120
5.2909	113
5.2983	86
5.3057	89
5.3131	104
5.3205	121
5.3279	102
5.3353	87
5.3427	80
5.3501	98
5.3574	109
5.3648	78
5.3722	91
5.3796	88
5.3870	108
5.3944	105
5.4018	85
5.4092	81
5.4166	114
5.4240	98
5.4314	109
5.4388	87
5.4462	93
5.4536	100
5.4610	84
5.4684	114
5.4758	84
5.4832	83
5.4906	96
5.4980	104
5.5054	88
5.5127	88
5.5201	83
5.5275	98
5.5349	85
5.5423	99
5.5497	88
5.5571	76
5.5645	83
5.5719	87
5.5793	103
5.5867	118
5.5941	82
5.6015	98
5.6089	98
5.6163	94
5.6237	85
5.6311	97
5.6385	100
5.6459	87
5.6533	99
5.6607	88
5.6680	94
5.6754	94
5.6828	96
5.6902	93
5.6976	95
5.7050	96
5.7124	85
5.7198	97
5.7272	92
5.7346	90
5.7420	97
5.7494	75
5.7568	103
5.7642	86
5.7716	85
5.7790	80
5.7864	95
5.7938	111
5.8012	104
5.8086	85
5.8160	98
5.8233	82
5.8307	88
5.8381	87
5.8455	94
5.8529	87
5.8603	88
5.8677	83
5.8751	76
5.8825	97
5.8899	85
5.8973	89
5.9047	99
5.9121	78
5.9195	80
5.9269	89
5.9343	90
5.9417	86
5.9491	108
5.9565	84
5.9639	88
5.9713	91
5.9786	83
5.9860	99
5.9934	93
6.0008	93
6.0082	102
6.0156	104
6.0230	100
6.0304	91
6.0378	78
6.0452	81
6.0526	99
6.0600	94
6.0674	73
6.0748	83
6.0822	78
6.0896	96
6.0970	89
6.1044	88
6.1118	81
6.1192	74
6.1266	65
6.1340	81
6.1413	91
6.1487	85
6.1561	83
6.1635	80
6.1709	98
6.1783	80
6.1857	82
6.1931	88
6.2005	89
6.2079	80
6.2153	91
6.2227	86
6.2301	78
6.2375	93
6.2449	89
6.2523	100
6.2597	93
6.2671	87
6.2745	82
6.2819	75
6.2893	92
6.2966	80
6.3040	107
6.3114	78
6.3188	82
6.3262	86
6.3336	88
6.3410	86
6.3484	80
6.3558	78
6.3632	87
6.3706	77
6.3780	77
6.3854	78
6.3928	75
6.4002	85
6.4076	73
6.4150	77
6.4224	86
6.4298	86
6.4372	80
6.4446	72
6.4519	86
6.4593	94
6.4667	86
6.4741	94
6.4815	74
6.4889	93
6.4963	78
6.5037	104
6.5111	98
6.5185	88
6.5259	75
6.5333	96
6.5407	86
6.5481	80
6.5555	79
6.5629	89
6.5703	68
6.5777	81
6.5851	70
6.5925	87
6.5999	66
6.6072	82
6.6146	85
6.6220	75
6.6294	73
6.6368	79
6.6442	81
6.6516	70
6.6590	74
6.6664	89
6.6738	75
6.6812	76
6.6886	67
6.6960	90
6.7034	72
6.7108	95
6.7182	85
6.7256	96
6.7330	79
6.7404	82
6.7478	77
6.7552	84
6.7625	79
6.7699	74
6.7773	89
6.7847	85
6.7921	85
6.7995	89
6.8069	99
6.8143	78
6.8217	85
6.8291	83
6.8365	79
6.8439	83
6.8513	91
6.8587	83
6.8661	72
6.8735	70
6.8809	79
6.8883	100
6.8957	84
6.9031	69
6.9105	68
6.9178	62
6.9252	83
6.9326	88
6.9400	73
6.9474	79
6.9548	79
6.9622	85
6.9696	79
6.9770	83
6.9844	77
6.9918	73
6.9992	71
7.0066	91
7.0140	77
7.0214	85
7.0288	77
7.0362	89
7.0436	68
7.0510	74
7.0584	83
7.0658	84
7.0731	95
7.0805	70
7.0879	78
7.0953	79
7.1027	68
7.1101	73
7.1175	69
7.1249	80
7.1323	68
7.1397	76
7.1471	74
7.1545	74
7.1619	88
7.1693	87
7.1767	91
7.1841	77
7.1915	84
7.1989	87
7.2063	80
7.2137	66
7.2211	66
7.2284	64
7.2358	76
7.2432	74
7.2506	88
7.2580	72
7.2654	101
7.2728	71
7.2802	93
7.2876	73
7.2950	89
7.3024	94
7.3098	78
7.3172	68
7.3246	79
7.3320	100
7.3394	71
7.3468	75
7.3542	90
7.3616	68
7.3690	79
7.3764	88
7.3837	84
7.3911	71
7.3985	91
7.4059	84
7.4133	75
7.4207	80
7.4281	66
7.4355	79
7.4429	80
7.4503	76
7.4577	78
7.4651	91
7.4725	92
7.4799	83
7.4873	78
7.4947	73
7.5021	62
7.5095	87
7.5169	72
7.5243	92
7.5317	67
7.5390	68
7.5464	71
7.5538	72
7.5612	70
7.5686	71
7.5760	81
7.5834	89
7.5908	79
7.5982	85
7.6056	71
7.6130	85
7.6204	79
7.6278	83
7.6352	76
7.6426	73
7.6500	74
7.6574	94
7.6648	92
7.6722	71
7.6796	79
7.6870	78
7.6944	98
7.7017	67
7.7091	85
7.7165	91
7.7239	74
7.7313	76
7.7387	73
7.7461	86
7.7535	76
7.7609	81
7.7683	82
7.7757	80
7.7831	73
7.7905	71
7.7979	95
7.8053	89
7.8127	56
7.8201	95
7.8275	79
7.8349	80
7.8423	83
7.8497	76
7.8570	66
7.8644	72
7.8718	90
7.8792	83
7.8866	80
7.8940	80
7.9014	61
7.9088	71
7.9162	87
7.9236	75
7.9310	86
7.9384	80
7.9458	73
7.9532	84
7.9606	84
7.9680	90
7.9754	70
7.9828	89
7.9902	82
7.9976	87
8.0050	94
8.0123	88
8.0197	87
8.0271	90
8.0345	88
8.0419	66
8.0493	90
8.0567	76
8.0641	78
8.0715	87
8.0789	73
8.0863	97
8.0937	83
8.1011	87
8.1085	80
8.1159	84
8.1233	84
8.1307	77
8.1381	88
8.1455	112
8.1529	111
8.1603	88
8.1676	95
8.1750	87
8.1824	85
8.1898	95
8.1972	86
8.2046	107
8.2120	85
8.2194	104
8.2268	98
8.2342	120
8.2416	110
8.2490	122
8.2564	102
8.2638	124
8.2712	113
8.2786	112
8.2860	136
8.2934	119
8.3008	134
8.3082	153
8.3156	143
8.3229	134
8.3303	135
8.3377	114
8.3451	142
8.3525	136
8.3599	200
8.3673	189
8.3747	182
8.3821	209
8.3895	227
8.3969	247
8.4043	240
8.4117	242
8.4191	275
8.4265	321
8.4339	328
8.4413	381
8.4487	381
8.4561	451
8.4635	483
8.4709	542
8.4782	666
8.4856	650
8.4930	708
8.5004	818
8.5078	854
8.5152	991
8.5226	960
8.5300	1079
8.5374	1033
8.5448	1056
8.5522	994
8.5596	928
8.5670	937
8.5744	885
8.5818	841
8.5892	739
8.5966	673
8.6040	619
8.6114	481
8.6188	451
8.6262	376
8.6335	337
8.6409	255
8.6483	243
8.6557	251
8.6631	202
8.6705	209
8.6779	155
8.6853	168
8.6927	143
8.7001	144
8.7075	143
8.7149	122
8.7223	127
8.7297	133
8.7371	118
8.7445	114
8.7519	104
8.7593	114
8.7667	119
8.7741	113
8.7815	97
8.7888	107
8.7962	112
8.8036	106
8.8110	117
8.8184	98
8.8258	92
8.8332	107
8.8406	90
8.8480	99
8.8554	97
8.8628	88
8.8702	113
8.8776	86
8.8850	98
8.8924	105
8.8998	88
8.9072	94
8.9146	110
8.9220	88
8.9294	85
8.9368	82
8.9441	86
8.9515	99
8.9589	95
8.9663	96
8.9737	92
8.9811	87
8.9885	88
8.9959	100
9.0033	93
9.0107	93
9.0181	94
9.0255	80
9.0329	105
9.0403	77
9.0477	95
9.0551	105
9.0625	106
9.0699	85
9.0773	94
9.0847	86
9.0921	93
9.0994	103
9.1068	87
9.1142	80
9.1216	96
9.1290	88
9.1364	86
9.1438	86
9.1512	100
9.1586	84
9.1660	97
9.1734	71
9.1808	106
9.1882	87
9.1956	90
9.2030	90
9.2104	84
9.2178	93
9.2252	96
9.2326	93
9.2400	89
9.2474	87
9.2548	79
9.2621	87
9.2695	71
9.2769	87
9.2843	101
9.2917	87
9.2991	90
9.3065	86
9.3139	88
9.3213	83
9.3287	92
9.3361	90
9.3435	88
9.3509	86
9.3583	90
9.3657	101
9.3731	95
9.3805	100
9.3879	71
9.3953	85
9.4027	72
9.4101	67
9.4174	85
9.4248	91
9.4322	84
9.4396	92
9.4470	91
9.4544	98
9.4618	89
9.4692	82
9.4766	73
9.4840	86
9.4914	97
9.4988	89
9.5062	88
9.5136	71
9.5210	84
9.5284	85
9.5358	82
9.5432	86
9.5506	109
9.5580	93
9.5654	89
9.5727	86
9.5801	77
9.5875	86
9.5949	81
9.6023	86
9.6097	92
9.6171	69
9.6245	72
9.6319	82
9.6393	73
9.6467	71
9.6541	87
9.6615	69
9.6689	75
9.6763	106
9.6837	90
9.6911	74
9.6985	73
9.7059	78
9.7133	91
9.7207	94
9.7280	66
9.7354	83
9.7428	82
9.7502	103
9.7576	90
9.7650	96
9.7724	81
9.7798	86
9.7872	93
9.7946	67
9.8020	76
9.8094	83
9.8168	75
9.8242	86
9.8316	68
9.8390	83
9.8464	99
9.8538	75
9.8612	77
9.8686	77
9.8760	84
9.8833	89
9.8907	90
9.8981	117
9.9055	85
9.9129	85
9.9203	89
9.9277	87
9.9351	99
9.9425	87
9.9499	82
9.9573	96
9.9647	84
9.9721	82
9.9795	88
9.9869	70
9.9943	94
10.0017	87
10.0091	79
10.0165	71
10.0239	82
10.0313	70
10.0386	86
10.0460	84
10.0534	85
10.0608	87
10.0682	103
10.0756	85
10.0830	82
10.0904	80
10.0978	86
10.1052	80
10.1126	84
10.1200	93
10.1274	78
10.1348	88
10.1422	80
10.1496	70
10.1570	74
10.1644	84
10.1718	101
10.1792	87
10.1866	86
10.1939	84
10.2013	85
10.2087	69
10.2161	85
10.2235	86
10.2309	81
10.2383	72
10.2457	85
10.2531	73
10.2605	82
10.2679	81
10.2753	99
10.2827	91
10.2901	84
10.2975	71
10.3049	82
10.3123	86
10.3197	93
10.3271	73
10.3345	95
10.3419	89
10.3492	80
10.3566	89
10.3640	96
10.3714	82
10.3788	89
10.3862	76
10.3936	76
10.4010	77
10.4084	83
10.4158	82
10.4232	97
10.4306	89
10.4380	86
10.4454	92
10.4528	73
10.4602	79
10.4676	94
10.4750	77
10.4824	70
10.4898	79
10.4972	80
10.5045	83
10.5119	70
10.5193	84
10.5267	73
10.5341	72
10.5415	87
10.5489	86
10.5563	95
10.5637	61
10.5711	87
10.5785	93
10.5859	86
10.5933	69
10.6007	80
10.6081	81
10.6155	80
10.6229	84
10.6303	77
10.6377	82
10.6451	90
10.6525	88
10.6598	90
10.6672	84
10.6746	85
10.6820	91
10.6894	71
10.6968	89
10.7042	74
10.7116	77
10.7190	73
10.7264	85
10.7338	72
10.7412	81
10.7486	83
10.7560	86
10.7634	82
10.7708	89
10.7782	81
10.7856	78
10.7930	73
10.8004	87
10.8078	78
10.8151	83
10.8225	75
10.8299	73
10.8373	73
10.8447	92
10.8521	82
10.8595	94
10.8669	78
10.8743	82
10.8817	82
10.8891	81
10.8965	85
10.9039	75
10.9113	96
10.9187	97
10.9261	83
10.9335	93
10.9409	60
10.9483	80
10.9557	98
10.9631	75
10.9705	84
10.9778	83
10.9852	77
10.9926	91
11.0000	83
11.0074	89
11.0148	94
11.0222	87
11.0296	82
11.0370	86
11.0444	101
11.0518	86
11.0592	84
11.0666	77
11.0740	80
11.0814	93
11.0888	93
11.0962	102
11.1036	88
11.1110	97
11.1184	65
11.1258	88
11.1331	86
11.1405	100
11.1479	93
11.1553	92
11.1627	91
11.1701	82
11.1775	95
11.1849	92
11.1923	74
11.1997	79
11.2071	85
11.2145	88
11.2219	86
11.2293	82
11.2367	77
11.2441	93
11.2515	85
11.2589	76
11.2663	84
11.2737	84
11.2811	81
11.2884	97
11.2958	110
11.3032	85
11.3106	82
11.3180	88
11.3254	102
11.3328	92
11.3402	87
11.3476	86
11.3550	88
11.3624	99
11.3698	75
11.3772	91
11.3846	92
11.3920	88
11.3994	94
11.4068	102
11.4142	117
11.4216	103
11.4290	93
11.4364	97
11.4437	101
11.4511	101
11.4585	121
11.4659	118
11.4733	94
11.4807	93
11.4881	113
11.4955	96
11.5029	78
11.5103	107
11.5177	101
11.5251	100
11.5325	96
11.5399	80
11.5473	130
11.5547	111
11.5621	105
11.5695	124
11.5769	120
11.5843	126
11.5917	119
11.5990	125
11.6064	141
11.6138	162
11.6212	155
11.6286	160
11.6360	175
11.6434	179
11.6508	208
11.6582	251
11.6656	210
11.6730	257
11.6804	264
11.6878	284
11.6952	343
11.7026	343
11.7100	373
11.7174	357
11.7248	393
11.7322	383
11.7396	382
11.7470	369
11.7543	353
11.7617	412
11.7691	359
11.7765	363
11.7839	310
11.7913	282
11.7987	264
11.8061	260
11.8135	206
11.8209	192
11.8283	183
11.8357	159
11.8431	157
11.8505	162
11.8579	133
11.8653	152
11.8727	116
11.8801	110
11.8875	117
11.8949	127
11.9023	107
11.9096	131
11.9170	116
11.9244	113
11.9318	118
11.9392	111
11.9466	115
11.9540	124
11.9614	102
11.9688	131
11.9762	116
11.9836	122
11.9910	113
11.9984	118
12.0058	111
12.0132	127
12.0206	116
12.0280	112
12.0354	116
12.0428	107
12.0502	95
12.0576	121
12.0649	128
12.0723	120
12.0797	106
12.0871	105
12.0945	104
12.1019	122
12.1093	127
12.1167	120
12.1241	127
12.1315	120
12.1389	129
12.1463	134
12.1537	133
12.1611	129
12.1685	143
12.1759	156
12.1833	134
12.1907	156
12.1981	152
12.2055	165
12.2129	188
12.2202	166
12.2276	186
12.2350	221
12.2424	236
12.2498	248
12.2572	268
12.2646	298
12.2720	313
12.2794	318
12.2868	370
12.2942	410
12.3016	483
12.3090	535
12.3164	630
12.3238	635
12.3312	748
12.3386	795
12.3460	843
12.3534	921
12.3608	951
12.3682	954
12.3755	987
12.3829	975
12.3903	997
12.3977	892
12.4051	839
12.4125	844
12.4199	755
12.4273	713
12.4347	618
12.4421	580
12.4495	538
12.4569	459
12.4643	404
12.4717	341
12.4791	307
12.4865	295
12.4939	296
12.5013	238
12.5087	217
12.5161	206
12.5235	176
12.5309	195
12.5382	159
12.5456	152
12.5530	139
12.5604	165
12.5678	171
12.5752	129
12.5826	136
12.5900	128
12.5974	129
12.6048	120
12.6122	110
12.6196	134
12.6270	109
12.6344	131
12.6418	109
12.6492	109
12.6566	132
12.6640	129
12.6714	113
12.6788	124
12.6862	107
12.6935	101
12.7009	111
12.7083	115
12.7157	108
12.7231	105
12.7305	111
12.7379	125
12.7453	110
12.7527	125
12.7601	104
12.7675	124
12.7749	98
12.7823	119
12.7897	96
12.7971	123
12.8045	109
12.8119	106
12.8193	110
12.8267	98
12.8341	94
12.8415	119
12.8488	91
12.8562	97
12.8636	118
12.8710	116
12.8784	111
12.8858	115
12.8932	120
12.9006	131
12.9080	88
12.9154	99
12.9228	90
12.9302	107
12.9376	114
12.9450	114
12.9524	109
12.9598	112
12.9672	110
12.9746	116
12.9820	121
12.9894	107
12.9968	110
13.0041	113
13.0115	93
13.0189	136
13.0263	104
13.0337	126
13.0411	134
13.0485	121
13.0559	118
13.0633	141
13.0707	112
13.0781	113
13.0855	125
13.0929	146
13.1003	127
13.1077	143
13.1151	120
13.1225	133
13.1299	171
13.1373	167
13.1447	176
13.1521	154
13.1594	190
13.1668	185
13.1742	217
13.1816	236
13.1890	260
13.1964	286
13.2038	300
13.2112	304
13.2186	343
13.2260	381
13.2334	393
13.2408	395
13.2482	413
13.2556	444
13.2630	471
13.2704	493
13.2778	450
13.2852	465
13.2926	485
13.3000	438
13.3074	401
13.3147	376
13.3221	344
13.3295	320
13.3369	283
13.3443	306
13.3517	284
13.3591	256
13.3665	201
13.3739	184
13.3813	204
13.3887	172
13.3961	195
13.4035	157
13.4109	170
13.4183	164
13.4257	159
13.4331	172
13.4405	172
13.4479	154
13.4553	145
13.4627	168
13.4700	154
13.4774	179
13.4848	155
13.4922	177
13.4996	187
13.5070	187
13.5144	167
13.5218	164
13.5292	182
13.5366	204
13.5440	172
13.5514	194
13.5588	215
13.5662	227
13.5736	254
13.5810	270
13.5884	300
13.5958	317
13.6032	371
13.6106	430
13.6180	457
13.6253	529
13.6327	590
13.6401	625
13.6475	690
13.6549	753
13.6623	753
13.6697	844
13.6771	873
13.6845	916
13.6919	945
13.6993	966
13.7067	984
13.7141	984
13.7215	913
13.7289	886
13.7363	857
13.7437	815
13.7511	692
13.7585	625
13.7659	611
13.7733	529
13.7806	498
13.7880	458
13.7954	377
13.8028	347
13.8102	297
13.8176	282
13.8250	295
13.8324	230
13.8398	200
13.8472	189
13.8546	173
13.8620	181
13.8694	147
13.8768	161
13.8842	166
13.8916	113
13.8990	132
13.9064	144
13.9138	144
13.9212	133
13.9286	161
13.9359	120
13.9433	127
13.9507	117
13.9581	132
13.9655	122
13.9729	114
13.9803	117
13.9877	149
13.9951	118
14.0025	130
14.0099	108
14.0173	95
14.0247	99
14.0321	109
14.0395	126
14.0469	123
14.0543	109
14.0617	122
14.0691	124
14.0765	121
14.0839	115
14.0913	115
14.0986	113
14.1060	108
14.1134	112
14.1208	117
14.1282	106
14.1356	112
14.1430	105
14.1504	96
14.1578	125
14.1652	110
14.1726	107
14.1800	105
14.1874	121
14.1948	130
14.2022	110
14.2096	122
14.2170	99
14.2244	126
14.2318	104
14.2392	112
14.2466	131
14.2539	116
14.2613	105
14.2687	119
14.2761	139
14.2835	106
14.2909	128
14.2983	132
14.3057	132
14.3131	151
14.3205	147
14.3279	154
14.3353	177
14.3427	176
14.3501	199
14.3575	197
14.3649	212
14.3723	229
14.3797	225
14.3871	224
14.3945	272
14.4019	298
14.4092	264
14.4166	287
14.4240	258
14.4314	273
14.4388	290
14.4462	255
14.4536	263
14.4610	244
14.4684	244
14.4758	235
14.4832	231
14.4906	233
14.4980	187
14.5054	200
14.5128	177
14.5202	183
14.5276	164
14.5350	141
14.5424	156
14.5498	146
14.5572	126
14.5645	132
14.5719	138
14.5793	129
14.5867	124
14.5941	125
14.6015	119
14.6089	133
14.6163	109
14.6237	109
14.6311	107
14.6385	121
14.6459	126
14.6533	124
14.6607	110
14.6681	113
14.6755	93
14.6829	114
14.6903	111
14.6977	116
14.7051	110
14.7125	94
14.7198	106
14.7272	97
14.7346	98
14.7420	96
14.7494	98
14.7568	99
14.7642	94
14.7716	94
14.7790	110
14.7864	122
14.7938	95
14.8012	106
14.8086	96
14.8160	107
14.8234	111
14.8308	104
14.8382	102
14.8456	94
14.8530	89
14.8604	97
14.8678	91
14.8751	100
14.8825	104
14.8899	106
14.8973	100
14.9047	104
14.9121	87
14.9195	103
14.9269	112
14.9343	98
14.9417	95
14.9491	88
14.9565	98
14.9639	81
14.9713	85
14.9787	101
14.9861	101
14.9935	87
15.0009	110
15.0083	95
15.0157	95
15.0231	82
15.0304	82
15.0378	105
15.0452	110
15.0526	90
15.0600	92
15.0674	99
15.0748	87
15.0822	96
15.0896	102
15.0970	98
15.1044	94
15.1118	103
15.1192	118
15.1266	105
15.1340	106
15.1414	78
15.1488	129
15.1562	90
15.1636	101
15.1710	92
15.1784	99
15.1857	110
15.1931	87
15.2005	112
15.2079	110
15.2153	100
15.2227	102
15.2301	92
15.2375	107
15.2449	91
15.2523	106
15.2597	101
15.2671	102
15.2745	101
15.2819	105
15.2893	92
15.2967	117
15.3041	90
15.3115	95
15.3189	119
15.3263	103
15.3337	101
15.3410	88
15.3484	99
15.3558	85
15.3632	105
15.3706	104
15.3780	89
15.3854	102
15.3928	92
15.4002	91
15.4076	76
15.4150	110
15.4224	108
15.4298	99
15.4372	98
15.4446	111
15.4520	115
15.4594	117
15.4668	112
15.4742	122
15.4816	97
15.4890	116
15.4963	117
15.5037	124
15.5111	137
15.5185	125
15.5259	143
15.5333	147
15.5407	167
15.5481	159
15.5555	170
15.5629	170
15.5703	157
15.5777	175
15.5851	180
15.5925	189
15.5999	151
15.6073	145
15.6147	145
15.6221	163
15.6295	141
15.6369	144
15.6443	135
15.6516	149
15.6590	122
15.6664	122
15.6738	115
15.6812	115
15.6886	113
15.6960	125
15.7034	112
15.7108	121
15.7182	112
15.7256	104
15.7330	110
15.7404	97
15.7478	89
15.7552	93
15.7626	86
15.7700	86
15.7774	91
15.7848	93
15.7922	90
15.7996	90
15.8070	100
15.8143	84
15.8217	87
15.8291	95
15.8365	80
15.8439	98
15.8513	110
15.8587	77
15.8661	102
15.8735	92
15.8809	84
15.8883	92
15.8957	96
15.9031	83
15.9105	93
15.9179	82
15.9253	105
15.9327	98
15.9401	61
15.9475	89
15.9549	87
15.9623	89
15.9696	96
15.9770	84
15.9844	91
15.9918	91
15.9992	89
16.0066	84
16.0140	93
16.0214	100
16.0288	88
16.0362	101
16.0436	88
16.0510	95
16.0584	96
16.0658	97
16.0732	86
16.0806	91
16.0880	93
16.0954	97
16.1028	78
16.1102	95
16.1176	79
16.1249	87
16.1323	105
16.1397	83
16.1471	104
16.1545	101
16.1619	105
16.1693	85
16.1767	79
16.1841	92
16.1915	103
16.1989	85
16.2063	86
16.2137	91
16.2211	104
16.2285	120
16.2359	106
16.2433	94
16.2507	83
16.2581	87
16.2655	81
16.2729	90
16.2802	88
16.2876	76
16.2950	93
16.3024	100
16.3098	91
16.3172	108
16.3246	105
16.3320	87
16.3394	97
16.3468	95
16.3542	92
16.3616	103
16.3690	104
16.3764	100
16.3838	105
16.3912	98
16.3986	87
16.4060	108
16.4134	100
16.4208	110
16.4282	98
16.4355	109
16.4429	127
16.4503	106
16.4577	99
16.4651	103
16.4725	106
16.4799	83
16.4873	108
16.4947	101
16.5021	116
16.5095	118
16.5169	98
16.5243	126
16.5317	110
16.5391	99
16.5465	123
16.5539	105
16.5613	140
16.5687	123
16.5761	118
16.5835	160
16.5908	124
16.5982	136
16.6056	108
16.6130	160
16.6204	155
16.6278	144
16.6352	160
16.6426	176
16.6500	170
16.6574	188
16.6648	186
16.6722	169
16.6796	171
16.6870	196
16.6944	206
16.7018	233
16.7092	252
16.7166	264
16.7240	264
16.7314	306
16.7388	305
16.7461	332
16.7535	344
16.7609	400
16.7683	441
16.7757	452
16.7831	528
16.7905	518
16.7979	612
16.8053	621
16.8127	627
16.8201	698
16.8275	675
16.8349	723
16.8423	755
16.8497	752
16.8571	754
16.8645	765
16.8719	722
16.8793	703
16.8867	762
16.8941	672
16.9014	644
16.9088	684
16.9162	620
16.9236	621
16.9310	591
16.9384	579
16.9458	495
16.9532	486
16.9606	453
16.9680	450
16.9754	438
16.9828	413
16.9902	472
16.9976	470
17.0050	476
17.0124	464
17.0198	471
17.0272	473
17.0346	507
17.0420	520
17.0494	526
17.0567	518
17.0641	506
17.0715	481
17.0789	457
17.0863	448
17.0937	478
17.1011	433
17.1085	421
17.1159	368
17.1233	383
17.1307	333
17.1381	313
17.1455	273
17.1529	283
17.1603	245
17.1677	212
17.1751	212
17.1825	191
17.1899	190
17.1973	183
17.2047	148
17.2120	151
17.2194	154
17.2268	137
17.2342	131
17.2416	142
17.2490	145
17.2564	138
17.2638	137
17.2712	118
17.2786	127
17.2860	141
17.2934	118
17.3008	126
17.3082	145
17.3156	133
17.3230	111
17.3304	102
17.3378	114
17.3452	125
17.3526	134
17.3600	151
17.3674	134
17.3747	119
17.3821	132
17.3895	130
17.3969	110
17.4043	127
17.4117	120
17.4191	108
17.4265	110
17.4339	133
17.4413	125
17.4487	125
17.4561	121
17.4635	127
17.4709	138
17.4783	101
17.4857	107
17.4931	114
17.5005	140
17.5079	115
17.5153	125
17.5227	119
17.5300	128
17.5374	140
17.5448	124
17.5522	132
17.5596	155
17.5670	130
17.5744	119
17.5818	126
17.5892	125
17.5966	137
17.6040	122
17.6114	163
17.6188	158
17.6262	175
17.6336	169
17.6410	169
17.6484	163
17.6558	169
17.6632	151
17.6706	169
17.6780	204
17.6853	194
17.6927	232
17.7001	221
17.7075	272
17.7149	267
17.7223	278
17.7297	297
17.7371	312
17.7445	371
17.7519	378
17.7593	404
17.7667	406
17.7741	474
17.7815	492
17.7889	600
17.7963	629
17.8037	663
17.8111	808
17.8185	785
17.8259	900
17.8333	919
17.8406	966
17.8480	1068
17.8554	1027
17.8628	1025
17.8702	1047
17.8776	1107
17.8850	1057
17.8924	1042
17.8998	1003
17.9072	963
17.9146	963
17.9220	897
17.9294	848
17.9368	740
17.9442	734
17.9516	663
17.9590	605
17.9664	555
17.9738	504
17.9812	469
17.9886	394
17.9959	417
18.0033	358
18.0107	322
18.0181	288
18.0255	254
18.0329	283
18.0403	277
18.0477	210
18.0551	229
18.0625	193
18.0699	193
18.0773	224
18.0847	186
18.0921	164
18.0995	159
18.1069	153
18.1143	175
18.1217	150
18.1291	141
18.1365	179
18.1439	153
18.1512	153
18.1586	142
18.1660	145
18.1734	141
18.1808	136
18.1882	144
18.1956	145
18.2030	142
18.2104	149
18.2178	132
18.2252	124
18.2326	152
18.2400	129
18.2474	136
18.2548	126
18.2622	143
18.2696	165
18.2770	132
18.2844	119
18.2918	149
18.2992	135
18.3065	149
18.3139	148
18.3213	150
18.3287	171
18.3361	154
18.3435	161
18.3509	170
18.3583	179
18.3657	172
18.3731	163
18.3805	181
18.3879	190
18.3953	193
18.4027	218
18.4101	211
18.4175	211
18.4249	238
18.4323	243
18.4397	256
18.4471	270
18.4545	279
18.4618	312
18.4692	376
18.4766	418
18.4840	411
18.4914	489
18.4988	515
18.5062	560
18.5136	626
18.5210	732
18.5284	846
18.5358	917
18.5432	989
18.5506	1080
18.5580	1087
18.5654	1191
18.5728	1302
18.5802	1314
18.5876	1387
18.5950	1419
18.6024	1530
18.6098	1411
18.6171	1406
18.6245	1329
18.6319	1347
18.6393	1237
18.6467	1244
18.6541	1090
18.6615	1058
18.6689	947
18.6763	880
18.6837	807
18.6911	740
18.6985	662
18.7059	612
18.7133	602
18.7207	546
18.7281	481
18.7355	419
18.7429	397
18.7503	342
18.7577	329
18.7651	294
18.7724	274
18.7798	265
18.7872	238
18.7946	252
18.8020	214
18.8094	217
18.8168	183
18.8242	203
18.8316	181
18.8390	182
18.8464	164
18.8538	152
18.8612	165
18.8686	156
18.8760	164
18.8834	140
18.8908	154
18.8982	134
18.9056	158
18.9130	132
18.9204	161
18.9278	145
18.9351	139
18.9425	115
18.9499	123
18.9573	115
18.9647	132
18.9721	138
18.9795	118
18.9869	117
18.9943	117
19.0017	107
19.0091	123
19.0165	116
19.0239	109
19.0313	130
19.0387	124
19.0461	105
19.0535	106
19.0609	105
19.0683	115
19.0757	119
19.0831	111
19.0904	124
19.0978	111
19.1052	107
19.1126	114
19.1200	88
19.1274	95
19.1348	122
19.1422	108
19.1496	131
19.1570	102
19.1644	129
19.1718	102
19.1792	89
19.1866	108
19.1940	93
19.2014	119
19.2088	123
19.2162	108
19.2236	108
19.2310	88
19.2384	104
19.2457	95
19.2531	101
19.2605	121
19.2679	103
19.2753	126
19.2827	104
19.2901	105
19.2975	120
19.3049	104
19.3123	92
19.3197	119
19.3271	116
19.3345	119
19.3419	127
19.3493	122
19.3567	128
19.3641	107
19.3715	123
19.3789	143
19.3863	130
19.3937	123
19.4010	132
19.4084	126
19.4158	154
19.4232	146
19.4306	186
19.4380	154
19.4454	183
19.4528	197
19.4602	177
19.4676	206
19.4750	211
19.4824	205
19.4898	223
19.4972	199
19.5046	160
19.5120	220
19.5194	211
19.5268	194
19.5342	177
19.5416	172
19.5490	185
19.5563	148
19.5637	165
19.5711	158
19.5785	167
19.5859	136
19.5933	146
19.6007	140
19.6081	122
19.6155	120
19.6229	126
19.6303	113
19.6377	89
19.6451	112
19.6525	107
19.6599	109
19.6673	106
19.6747	78
19.6821	106
19.6895	110
19.6969	115
19.7043	99
19.7116	106
19.7190	103
19.7264	105
19.7338	95
19.7412	121
19.7486	131
19.7560	110
19.7634	119
19.7708	111
19.7782	106
19.7856	102
19.7930	107
19.8004	94
19.8078	114
19.8152	98
19.8226	109
19.8300	111
19.8374	113
19.8448	108
19.8522	103
19.8596	119
19.8669	133
19.8743	117
19.8817	115
19.8891	98
19.8965	101
19.9039	122
19.9113	106
19.9187	101
19.9261	96
19.9335	106
19.9409	106
19.9483	113
19.9557	100
19.9631	110
19.9705	107
19.9779	119
19.9853	90
19.9927	131
20.0001	112
20.0075	111
20.0149	100
20.0222	132
20.0296	124
20.0370	111
20.0444	109
20.0518	112
20.0592	119
20.0666	122
20.0740	114
20.0814	103
20.0888	124
20.0962	99
20.1036	119
20.1110	112
20.1184	95
20.1258	139
20.1332	113
20.1406	126
20.1480	122
20.1554	116
20.1628	104
20.1702	120
20.1775	124
20.1849	133
20.1923	137
20.1997	141
20.2071	116
20.2145	132
20.2219	137
20.2293	127
20.2367	119
20.2441	151
20.2515	140
20.2589	139
20.2663	139
20.2737	132
20.2811	145
20.2885	153
20.2959	160
20.3033	166
20.3107	179
20.3181	162
20.3255	180
20.3328	175
20.3402	199
20.3476	204
20.3550	197
20.3624	218
20.3698	210
20.3772	233
20.3846	237
20.3920	249
20.3994	263
20.4068	286
20.4142	351
20.4216	345
20.4290	378
20.4364	441
20.4438	406
20.4512	457
20.4586	503
20.4660	600
20.4734	637
20.4808	682
20.4882	725
20.4955	857
20.5029	853
20.5103	903
20.5177	945
20.5251	1093
20.5325	1134
20.5399	1123
20.5473	1168
20.5547	1260
20.5621	1246
20.5695	1205
20.5769	1212
20.5843	1175
20.5917	1134
20.5991	1083
20.6065	1049
20.6139	986
20.6213	937
20.6287	907
20.6361	837
20.6435	765
20.6508	724
20.6582	673
20.6656	616
20.6730	547
20.6804	512
20.6878	436
20.6952	434
20.7026	363
20.7100	353
20.7174	336
20.7248	299
20.7322	276
20.7396	301
20.7470	265
20.7544	253
20.7618	243
20.7692	217
20.7766	257
20.7840	232
20.7914	230
20.7988	216
20.8061	212
20.8135	224
20.8209	249
20.8283	247
20.8357	243
20.8431	214
20.8505	238
20.8579	216
20.8653	243
20.8727	265
20.8801	258
20.8875	277
20.8949	306
20.9023	317
20.9097	342
20.9171	342
20.9245	359
20.9319	415
20.9393	420
20.9467	397
20.9541	430
20.9614	451
20.9688	460
20.9762	503
20.9836	453
20.9910	471
20.9984	434
21.0058	483
21.0132	425
21.0206	406
21.0280	421
21.0354	392
21.0428	341
21.0502	377
21.0576	335
21.0650	305
21.0724	299
21.0798	250
21.0872	239
21.0946	247
21.1020	249
21.1094	221
21.1167	216
21.1241	192
21.1315	197
21.1389	197
21.1463	174
21.1537	166
21.1611	171
21.1685	179
21.1759	167
21.1833	154
21.1907	152
21.1981	173
21.2055	167
21.2129	158
21.2203	161
21.2277	174
21.2351	157
21.2425	169
21.2499	173
21.2573	158
21.2647	145
21.2720	155
21.2794	154
21.2868	155
21.2942	156
21.3016	135
21.3090	174
21.3164	140
21.3238	154
21.3312	191
21.3386	174
21.3460	169
21.3534	142
21.3608	171
21.3682	206
21.3756	181
21.3830	196
21.3904	191
21.3978	215
21.4052	206
21.4126	215
21.4200	218
21.4273	238
21.4347	244
21.4421	273
21.4495	282
21.4569	276
21.4643	302
21.4717	369
21.4791	353
21.4865	374
21.4939	401
21.5013	415
21.5087	459
21.5161	456
21.5235	503
21.5309	526
21.5383	526
21.5457	568
21.5531	585
21.5605	532
21.5679	535
21.5753	514
21.5826	552
21.5900	520
21.5974	490
21.6048	530
21.6122	487
21.6196	459
21.6270	461
21.6344	447
21.6418	405
21.6492	420
21.6566	460
21.6640	454
21.6714	420
21.6788	488
21.6862	473
21.6936	497
21.7010	511
21.7084	455
21.7158	498
21.7232	522
21.7306	507
21.7379	505
21.7453	537
21.7527	555
21.7601	592
21.7675	571
21.7749	601
21.7823	581
21.7897	559
21.7971	574
21.8045	598
21.8119	576
21.8193	596
21.8267	600
21.8341	618
21.8415	681
21.8489	633
21.8563	650
21.8637	705
21.8711	758
21.8785	766
21.8859	893
21.8932	926
21.9006	1027
21.9080	1171
21.9154	1312
21.9228	1383
21.9302	1484
21.9376	1794
21.9450	1872
21.9524	1981
21.9598	2164
21.9672	2197
21.9746	2338
21.9820	2460
21.9894	2574
21.9968	2558
22.0042	2609
22.0116	2609
22.0190	2563
22.0264	2482
22.0338	2393
22.0412	2259
22.0485	2236
22.0559	2058
22.0633	1850
22.0707	1715
22.0781	1530
22.0855	1447
22.0929	1332
22.1003	1154
22.1077	1086
22.1151	909
22.1225	882
22.1299	726
22.1373	718
22.1447	596
22.1521	552
22.1595	548
22.1669	504
22.1743	413
22.1817	342
22.1891	356
22.1965	329
22.2039	344
22.2112	322
22.2186	277
22.2260	332
22.2334	256
22.2408	262
22.2482	260
22.2556	250
22.2630	234
22.2704	235
22.2778	255
22.2852	225
22.2926	221
22.3000	218
22.3074	207
22.3148	184
22.3222	208
22.3296	197
22.3370	206
22.3444	166
22.3518	184
22.3592	181
22.3665	181
22.3739	173
22.3813	166
22.3887	169
22.3961	146
22.4035	177
22.4109	174
22.4183	141
22.4257	154
22.4331	166
22.4405	184
22.4479	146
22.4553	146
22.4627	159
22.4701	153
22.4775	155
22.4849	123
22.4923	151
22.4997	152
22.5071	143
22.5145	154
22.5218	172
22.5292	132
22.5366	133
22.5440	171
22.5514	156
22.5588	157
22.5662	185
22.5736	159
22.5810	150
22.5884	148
22.5958	150
22.6032	157
22.6106	166
22.6180	173
22.6254	184
22.6328	169
22.6402	190
22.6476	175
22.6550	189
22.6624	187
22.6698	239
22.6771	239
22.6845	256
22.6919	263
22.6993	284
22.7067	312
22.7141	322
22.7215	347
22.7289	369
22.7363	393
22.7437	447
22.7511	474
22.7585	506
22.7659	540
22.7733	527
22.7807	500
22.7881	529
22.7955	590
22.8029	564
22.8103	516
22.8177	505
22.8251	497
22.8324	446
22.8398	496
22.8472	434
22.8546	424
22.8620	391
22.8694	338
22.8768	336
22.8842	314
22.8916	324
22.8990	285
22.9064	257
22.9138	230
22.9212	231
22.9286	225
22.9360	214
22.9434	190
22.9508	201
22.9582	162
22.9656	151
22.9730	172
22.9804	161
22.9877	165
22.9951	155
23.0025	140
23.0099	170
23.0173	171
23.0247	137
23.0321	155
23.0395	136
23.0469	152
23.0543	138
23.0617	139
23.0691	118
23.0765	135
23.0839	116
23.0913	135
23.0987	109
23.1061	152
23.1135	141
23.1209	125
23.1283	127
23.1357	140
23.1430	123
23.1504	132
23.1578	137
23.1652	146
23.1726	125
23.1800	125
23.1874	144
23.1948	143
23.2022	139
23.2096	143
23.2170	140
23.2244	136
23.2318	137
23.2392	132
23.2466	138
23.2540	127
23.2614	132
23.2688	131
23.2762	127
23.2836	118
23.2910	134
23.2983	120
23.3057	126
23.3131	126
23.3205	129
23.3279	127
23.3353	137
23.3427	140
23.3501	134
23.3575	128
23.3649	131
23.3723	138
23.3797	156
23.3871	149
23.3945	153
23.4019	134
23.4093	176
23.4167	149
23.4241	186
23.4315	185
23.4389	177
23.4463	181
23.4536	205
23.4610	204
23.4684	176
23.4758	197
23.4832	224
23.4906	234
23.4980	225
23.5054	221
23.5128	227
23.5202	245
23.5276	257
23.5350	221
23.5424	220
23.5498	229
23.5572	202
23.5646	207
23.5720	209
23.5794	180
23.5868	212
23.5942	192
23.6016	206
23.6089	181
23.6163	186
23.6237	174
23.6311	167
23.6385	178
23.6459	174
23.6533	168
23.6607	171
23.6681	164
23.6755	141
23.6829	164
23.6903	160
23.6977	140
23.7051	162
23.7125	178
23.7199	165
23.7273	155
23.7347	151
23.7421	184
23.7495	172
23.7569	156
23.7643	159
23.7716	153
23.7790	176
23.7864	179
23.7938	175
23.8012	216
23.8086	194
23.8160	196
23.8234	186
23.8308	226
23.8382	201
23.8456	231
23.8530	236
23.8604	242
23.8678	275
23.8752	258
23.8826	323
23.8900	319
23.8974	340
23.9048	333
23.9122	385
23.9196	408
23.9269	428
23.9343	440
23.9417	544
23.9491	527
23.9565	566
23.9639	683
23.9713	614
23.9787	652
23.9861	705
23.9935	697
24.0009	770
24.0083	796
24.0157	814
24.0231	829
24.0305	792
24.0379	849
24.0453	818
24.0527	838
24.0601	744
24.0675	790
24.0749	759
24.0822	714
24.0896	627
24.0970	662
24.1044	590
24.1118	579
24.1192	577
24.1266	501
24.1340	474
24.1414	447
24.1488	370
24.1562	410
24.1636	359
24.1710	386
24.1784	323
24.1858	292
24.1932	305
24.2006	318
24.2080	298
24.2154	259
24.2228	274
24.2302	287
24.2375	259
24.2449	278
24.2523	299
24.2597	262
24.2671	285
24.2745	278
24.2819	263
24.2893	292
24.2967	298
24.3041	305
24.3115	359
24.3189	333
24.3263	377
24.3337	407
24.3411	426
24.3485	444
24.3559	497
24.3633	493
24.3707	511
24.3781	555
24.3855	577
24.3928	583
24.4002	638
24.4076	651
24.4150	615
24.4224	679
24.4298	641
24.4372	634
24.4446	667
24.4520	633
24.4594	565
24.4668	603
24.4742	578
24.4816	512
24.4890	497
24.4964	487
24.5038	449
24.5112	390
24.5186	411
24.5260	356
24.5334	354
24.5408	346
24.5481	315
24.5555	276
24.5629	287
24.5703	241
24.5777	243
24.5851	232
24.5925	211
24.5999	220
24.6073	225
24.6147	215
24.6221	193
24.6295	198
24.6369	166
24.6443	190
24.6517	163
24.6591	172
24.6665	177
24.6739	176
24.6813	189
24.6887	166
24.6961	173
24.7034	185
24.7108	176
24.7182	169
24.7256	187
24.7330	183
24.7404	172
24.7478	184
24.7552	193
24.7626	201
24.7700	200
24.7774	246
24.7848	218
24.7922	190
24.7996	201
24.8070	204
24.8144	213
24.8218	268
24.8292	230
24.8366	220
24.8440	182
24.8514	227
24.8587	183
24.8661	201
24.8735	185
24.8809	197
24.8883	184
24.8957	175
24.9031	191
24.9105	168
24.9179	169
24.9253	151
24.9327	163
24.9401	191
24.9475	162
24.9549	165
24.9623	188
24.9697	155
24.9771	128
24.9845	134
24.9919	157
24.9993	154
25.0067	130
25.0140	141
25.0214	131
25.0288	148
25.0362	156
25.0436	133
25.0510	141
25.0584	124
25.0658	135
25.0732	133
25.0806	144
25.0880	140
25.0954	123
25.1028	144
25.1102	164
25.1176	146
25.1250	147
25.1324	142
25.1398	146
25.1472	149
25.1546	153
25.1620	148
25.1693	146
25.1767	125
25.1841	130
25.1915	167
25.1989	156
25.2063	144
25.2137	132
25.2211	175
25.2285	152
25.2359	159
25.2433	145
25.2507	160
25.2581	155
25.2655	169
25.2729	159
25.2803	149
25.2877	152
25.2951	163
25.3025	180
25.3099	170
25.3173	155
25.3247	153
25.3320	201
25.3394	206
25.3468	177
25.3542	216
25.3616	215
25.3690	225
25.3764	221
25.3838	218
25.3912	244
25.3986	292
25.4060	299
25.4134	314
25.4208	306
25.4282	383
25.4356	400
25.4430	421
25.4504	480
25.4578	456
25.4652	531
25.4726	572
25.4800	558
25.4873	646
25.4947	609
25.5021	675
25.5095	656
25.5169	673
25.5243	691
25.5317	656
25.5391	690
25.5465	670
25.5539	649
25.5613	609
25.5687	592
25.5761	659
25.5835	620
25.5909	588
25.5983	559
25.6057	568
25.6131	575
25.6205	583
25.6279	546
25.6353	524
25.6426	456
25.6500	464
25.6574	452
25.6648	494
25.6722	456
25.6796	435
25.6870	410
25.6944	424
25.7018	360
25.7092	367
25.7166	366
25.7240	388
25.7314	374
25.7388	365
25.7462	339
25.7536	329
25.7610	351
25.7684	352
25.7758	303
25.7832	335
25.7906	288
25.7979	283
25.8053	338
25.8127	304
25.8201	306
25.8275	354
25.8349	362
25.8423	367
25.8497	351
25.8571	356
25.8645	342
25.8719	382
25.8793	378
25.8867	393
25.8941	367
25.9015	385
25.9089	364
25.9163	392
25.9237	367
25.9311	398
25.9385	353
25.9459	362
25.9532	349
25.9606	307
25.9680	345
25.9754	317
25.9828	326
25.9902	307
25.9976	286
26.0050	242
26.0124	275
26.0198	241
26.0272	249
26.0346	248
26.0420	246
26.0494	253
26.0568	190
26.0642	247
26.0716	205
26.0790	212
26.0864	210
26.0938	205
26.1012	220
26.1085	212
26.1159	183
26.1233	192
26.1307	203
26.1381	201
26.1455	220
26.1529	185
26.1603	192
26.1677	196
26.1751	218
26.1825	225
26.1899	195
26.1973	209
26.2047	210
26.2121	231
26.2195	223
26.2269	226
26.2343	247
26.2417	245
26.2491	204
26.2565	244
26.2638	249
26.2712	256
26.2786	257
26.2860	251
26.2934	266
26.3008	291
26.3082	291
26.3156	291
26.3230	299
26.3304	334
26.3378	349
26.3452	321
26.3526	355
26.3600	380
26.3674	368
26.3748	425
26.3822	449
26.3896	458
26.3970	533
26.4044	536
26.4118	534
26.4191	593
26.4265	680
26.4339	710
26.4413	746
26.4487	796
26.4561	863
26.4635	933
26.4709	1036
26.4783	1092
26.4857	1195
26.4931	1311
26.5005	1326
26.5079	1467
26.5153	1591
26.5227	1715
26.5301	1624
26.5375	1705
26.5449	1744
26.5523	1822
26.5597	1893
26.5671	1885
26.5744	1949
26.5818	1951
26.5892	1899
26.5966	1878
26.6040	1756
26.6114	1703
26.6188	1684
26.6262	1558
26.6336	1539
26.6410	1415
26.6484	1408
26.6558	1301
26.6632	1204
26.6706	1108
26.6780	1064
26.6854	947
26.6928	864
26.7002	858
26.7076	762
26.7150	740
26.7224	710
26.7297	604
26.7371	588
26.7445	532
26.7519	515
26.7593	525
26.7667	495
26.7741	420
26.7815	429
26.7889	376
26.7963	360
26.8037	361
26.8111	376
26.8185	347
26.8259	315
26.8333	311
26.8407	294
26.8481	301
26.8555	301
26.8629	235
26.8703	271
26.8777	258
26.8850	217
26.8924	227
26.8998	223
26.9072	236
26.9146	207
26.9220	209
26.9294	206
26.9368	211
26.9442	239
26.9516	205
26.9590	200
26.9664	193
26.9738	188
26.9812	197
26.9886	172
26.9960	187
27.0034	168
27.0108	193
27.0182	193
27.0256	175
27.0330	173
27.0404	182
27.0477	163
27.0551	200
27.0625	172
27.0699	169
27.0773	179
27.0847	171
27.0921	176
27.0995	215
27.1069	189
27.1143	147
27.1217	151
27.1291	185
27.1365	179
27.1439	180
27.1513	147
27.1587	159
27.1661	177
27.1735	172
27.1809	154
27.1883	188
27.1957	176
27.2030	158
27.2104	181
27.2178	161
27.2252	177
27.2326	173
27.2400	157
27.2474	183
27.2548	159
27.2622	174
27.2696	176
27.2770	172
27.2844	182
27.2918	159
27.2992	196
27.3066	222
27.3140	188
27.3214	200
27.3288	213
27.3362	206
27.3436	235
27.3510	244
27.3583	254
27.3657	270
27.3731	277
27.3805	295
27.3879	330
27.3953	314
27.4027	340
27.4101	377
27.4175	391
27.4249	449
27.4323	470
27.4397	471
27.4471	489
27.4545	525
27.4619	579
27.4693	601
27.4767	610
27.4841	607
27.4915	626
27.4989	639
27.5063	638
27.5136	619
27.5210	685
27.5284	655
27.5358	672
27.5432	630
27.5506	653
27.5580	565
27.5654	579
27.5728	530
27.5802	541
27.5876	519
27.5950	474
27.6024	476
27.6098	426
27.6172	402
27.6246	382
27.6320	375
27.6394	357
27.6468	343
27.6542	299
27.6616	316
27.6689	282
27.6763	301
27.6837	260
27.6911	264
27.6985	249
27.7059	224
27.7133	243
27.7207	240
27.7281	221
27.7355	201
27.7429	199
27.7503	182
27.7577	194
27.7651	167
27.7725	168
27.7799	179
27.7873	180
27.7947	166
27.8021	168
27.8095	193
27.8169	166
27.8242	166
27.8316	155
27.8390	136
27.8464	173
27.8538	158
27.8612	146
27.8686	142
27.8760	147
27.8834	145
27.8908	169
27.8982	146
27.9056	149
27.9130	155
27.9204	127
27.9278	130
27.9352	135
27.9426	142
27.9500	154
27.9574	145
27.9648	140
27.9722	155
27.9795	139
27.9869	140
27.9943	143
28.0017	136
28.0091	157
28.0165	161
28.0239	154
28.0313	141
28.0387	151
28.0461	139
28.0535	160
28.0609	167
28.0683	153
28.0757	132
28.0831	138
28.0905	159
28.0979	152
28.1053	145
28.1127	122
28.1201	141
28.1275	166
28.1348	150
28.1422	162
28.1496	147
28.1570	181
28.1644	149
28.1718	141
28.1792	164
28.1866	154
28.1940	142
28.2014	185
28.2088	135
28.2162	175
28.2236	150
28.2310	164
28.2384	185
28.2458	184
28.2532	173
28.2606	170
28.2680	193
28.2754	212
28.2828	212
28.2901	203
28.2975	227
28.3049	240
28.3123	225
28.3197	239
28.3271	227
28.3345	262
28.3419	267
28.3493	254
28.3567	272
28.3641	317
28.3715	282
28.3789	336
28.3863	365
28.3937	376
28.4011	437
28.4085	415
28.4159	455
28.4233	453
28.4307	497
28.4381	515
28.4454	540
28.4528	592
28.4602	573
28.4676	609
28.4750	627
28.4824	627
28.4898	658
28.4972	625
28.5046	626
28.5120	577
28.5194	581
28.5268	567
28.5342	587
28.5416	595
28.5490	552
28.5564	537
28.5638	513
28.5712	458
28.5786	446
28.5860	416
28.5934	443
28.6008	396
28.6081	367
28.6155	366
28.6229	330
28.6303	341
28.6377	269
28.6451	279
28.6525	266
28.6599	267
28.6673	243
28.6747	231
28.6821	224
28.6895	239
28.6969	208
28.7043	206
28.7117	199
28.7191	208
28.7265	188
28.7339	185
28.7413	189
28.7487	200
28.7561	180
28.7634	176
28.7708	175
28.7782	167
28.7856	177
28.7930	180
28.8004	167
28.8078	184
28.8152	188
28.8226	198
28.8300	192
28.8374	208
28.8448	185
28.8522	165
28.8596	175
28.8670	212
28.8744	199
28.8818	232
28.8892	202
28.8966	212
28.9040	211
28.9114	245
28.9187	244
28.9261	243
28.9335	262
28.9409	274
28.9483	277
28.9557	308
28.9631	272
28.9705	291
28.9779	318
28.9853	325
28.9927	354
29.0001	336
29.0075	381
29.0149	406
29.0223	403
29.0297	374
29.0371	384
29.0445	404
29.0519	389
29.0593	402
29.0667	368
29.0740	371
29.0814	355
29.0888	352
29.0962	348
29.1036	341
29.1110	355
29.1184	317
29.1258	270
29.1332	275
29.1406	258
29.1480	295
29.1554	240
29.1628	224
29.1702	247
29.1776	208
29.1850	193
29.1924	206
29.1998	193
29.2072	186
29.2146	208
29.2220	160
29.2293	163
29.2367	156
29.2441	156
29.2515	150
29.2589	168
29.2663	140
29.2737	128
29.2811	133
29.2885	131
29.2959	136
29.3033	124
29.3107	122
29.3181	143
29.3255	129
29.3329	122
29.3403	138
29.3477	129
29.3551	127
29.3625	109
29.3699	113
29.3773	104
29.3846	136
29.3920	109
29.3994	148
29.4068	122
29.4142	137
29.4216	112
29.4290	137
29.4364	143
29.4438	129
29.4512	114
29.4586	104
29.4660	127
29.4734	126
29.4808	114
29.4882	124
29.4956	131
29.5030	139
29.5104	129
29.5178	149
29.5252	118
29.5326	133
29.5399	135
29.5473	145
29.5547	119
29.5621	119
29.5695	146
29.5769	120
29.5843	138
29.5917	127
29.5991	115
29.6065	121
29.6139	156
29.6213	150
29.6287	129
29.6361	143
29.6435	130
29.6509	140
29.6583	123
29.6657	130
29.6731	139
29.6805	140
29.6879	122
29.6952	113
29.7026	127
29.7100	118
29.7174	148
29.7248	114
29.7322	115
29.7396	130
29.7470	127
29.7544	107
29.7618	129
29.7692	104
29.7766	115
29.7840	115
29.7914	114
29.7988	121
29.8062	101
29.8136	119
29.8210	111
29.8284	118
29.8358	103
29.8432	125
29.8505	129
29.8579	125
29.8653	111
29.8727	115
29.8801	122
29.8875	107
29.8949	110
29.9023	133
29.9097	115
29.9171	112
29.9245	116
29.9319	113
29.9393	125
29.9467	134
29.9541	113
29.9615	123
29.9689	98
29.9763	102
29.9837	116
29.9911	116
29.9985	90
30.0058	93
30.0132	94
30.0206	103
30.0280	102
30.0354	115
30.0428	101
30.0502	95
30.0576	115
30.0650	113
30.0724	116
30.0798	100
30.0872	95
30.0946	97
30.1020	116
30.1094	126
30.1168	96
30.1242	106
30.1316	108
30.1390	122
30.1464	95
30.1538	111
30.1612	117
30.1685	132
30.1759	121
30.1833	111
30.1907	100
30.1981	111
30.2055	120
30.2129	96
30.2203	109
30.2277	98
30.2351	103
30.2425	115
30.2499	100
30.2573	107
30.2647	119
30.2721	111
30.2795	88
30.2869	122
30.2943	123
30.3017	144
30.3091	99
30.3165	122
30.3238	123
30.3312	108
30.3386	124
30.3460	102
30.3534	118
30.3608	122
30.3682	129
30.3756	114
30.3830	125
30.3904	116
30.3978	127
30.4052	103
30.4126	113
30.4200	122
30.4274	90
30.4348	127
30.4422	120
30.4496	118
30.4570	133
30.4644	154
30.4718	149
30.4791	124
30.4865	118
30.4939	131
30.5013	111
30.5087	128
30.5161	121
30.5235	138
30.5309	117
30.5383	145
30.5457	140
30.5531	154
30.5605	145
30.5679	164
30.5753	150
30.5827	145
30.5901	147
30.5975	143
30.6049	133
30.6123	166
30.6197	146
30.6271	166
30.6344	152
30.6418	143
30.6492	153
30.6566	179
30.6640	153
30.6714	182
30.6788	177
30.6862	176
30.6936	156
30.7010	160
30.7084	152
30.7158	164
30.7232	142
30.7306	152
30.7380	150
30.7454	151
30.7528	161
30.7602	143
30.7676	139
30.7750	120
30.7824	145
30.7897	129
30.7971	118
30.8045	112
30.8119	121
30.8193	131
30.8267	137
30.8341	127
30.8415	117
30.8489	135
30.8563	113
30.8637	127
30.8711	127
30.8785	135
30.8859	109
30.8933	98
30.9007	109
30.9081	118
30.9155	140
30.9229	133
30.9303	126
30.9377	90
30.9450	106
30.9524	100
30.9598	111
30.9672	115
30.9746	88
30.9820	108
30.9894	112
30.9968	129
31.0042	116
31.0116	93
31.0190	89
31.0264	98
31.0338	115
31.0412	123
31.0486	95
31.0560	111
31.0634	110
31.0708	111
31.0782	112
31.0856	92
31.0930	98
31.1003	112
31.1077	98
31.1151	112
31.1225	96
31.1299	102
31.1373	120
31.1447	114
31.1521	113
31.1595	120
31.1669	106
31.1743	101
31.1817	116
31.1891	115
31.1965	108
31.2039	130
31.2113	126
31.2187	139
31.2261	107
31.2335	129
31.2409	111
31.2483	113
31.2556	145
31.2630	137
31.2704	121
31.2778	143
31.2852	134
31.2926	149
31.3000	146
31.3074	147
31.3148	154
31.3222	182
31.3296	181
31.3370	160
31.3444	174
31.3518	193
31.3592	175
31.3666	204
31.3740	194
31.3814	251
31.3888	205
31.3962	230
31.4036	228
31.4109	225
31.4183	208
31.4257	250
31.4331	233
31.4405	243
31.4479	236
31.4553	278
31.4627	246
31.4701	246
31.4775	275
31.4849	242
31.4923	265
31.4997	249
31.5071	264
31.5145	268
31.5219	275
31.5293	254
31.5367	254
31.5441	253
31.5515	248
31.5589	250
31.5662	250
31.5736	218
31.5810	200
31.5884	225
31.5958	226
31.6032	203
31.6106	200
31.6180	215
31.6254	208
31.6328	209
31.6402	186
31.6476	173
31.6550	180
31.6624	185
31.6698	194
31.6772	195
31.6846	181
31.6920	154
31.6994	188
31.7068	149
31.7142	165
31.7215	176
31.7289	152
31.7363	148
31.7437	159
31.7511	173
31.7585	151
31.7659	142
31.7733	156
31.7807	159
31.7881	135
31.7955	154
31.8029	125
31.8103	124
31.8177	126
31.8251	125
31.8325	135
31.8399	132
31.8473	150
31.8547	153
31.8621	143
31.8695	136
31.8769	168
31.8842	153
31.8916	133
31.8990	167
31.9064	126
31.9138	127
31.9212	158
31.9286	139
31.9360	138
31.9434	153
31.9508	175
31.9582	146
31.9656	144
31.9730	168
31.9804	154
31.9878	157
31.9952	153
32.0026	167
32.0100	128
32.0174	149
32.0248	150
32.0322	142
32.0395	140
32.0469	126
32.0543	164
32.0617	154
32.0691	162
32.0765	127
32.0839	122
32.0913	114
32.0987	124
32.1061	135
32.1135	117
32.1209	113
32.1283	134
32.1357	115
32.1431	128
32.1505	128
32.1579	125
32.1653	105
32.1727	148
32.1801	103
32.1875	118
32.1948	104
32.2022	112
32.2096	100
32.2170	111
32.2244	110
32.2318	88
32.2392	110
32.2466	104
32.2540	91
32.2614	95
32.2688	97
32.2762	95
32.2836	90
32.2910	102
32.2984	92
32.3058	102
32.3132	82
32.3206	100
32.3280	83
32.3354	115
32.3428	99
32.3501	110
32.3575	99
32.3649	90
32.3723	106
32.3797	110
32.3871	90
32.3945	97
32.4019	101
32.4093	106
32.4167	102
32.4241	100
32.4315	101
32.4389	89
32.4463	83
32.4537	95
32.4611	108
32.4685	92
32.4759	91
32.4833	94
32.4907	104
32.4981	112
32.5054	90
32.5128	91
32.5202	116
32.5276	94
32.5350	85
32.5424	97
32.5498	87
32.5572	94
32.5646	107
32.5720	79
32.5794	91
32.5868	100
32.5942	98
32.6016	89
32.6090	101
32.6164	98
32.6238	81
32.6312	82
32.6386	82
32.6460	84
32.6534	99
32.6607	92
32.6681	94
32.6755	102
32.6829	98
32.6903	86
32.6977	86
32.7051	100
32.7125	94
32.7199	111
32.7273	92
32.7347	95
32.7421	93
32.7495	97
32.7569	101
32.7643	103
32.7717	95
32.7791	98
32.7865	94
32.7939	108
32.8013	114
32.8087	86
32.8160	120
32.8234	102
32.8308	117
32.8382	97
32.8456	102
32.8530	111
32.8604	101
32.8678	91
32.8752	105
32.8826	114
32.8900	105
32.8974	113
32.9048	111
32.9122	104
32.9196	115
32.9270	92
32.9344	99
32.9418	96
32.9492	128
32.9566	98
32.9640	114
32.9713	128
32.9787	105
32.9861	88
32.9935	109
33.0009	118
33.0083	106
33.0157	117
33.0231	92
33.0305	104
33.0379	102
33.0453	111
33.0527	113
33.0601	103
33.0675	104
33.0749	108
33.0823	114
33.0897	122
33.0971	103
33.1045	106
33.1119	96
33.1193	95
33.1266	114
33.1340	107
33.1414	129
33.1488	105
33.1562	118
33.1636	110
33.1710	108
33.1784	115
33.1858	113
33.1932	112
33.2006	101
33.2080	135
33.2154	132
33.2228	115
33.2302	116
33.2376	122
33.2450	121
33.2524	127
33.2598	113
33.2672	133
33.2746	134
33.2819	119
33.2893	128
33.2967	134
33.3041	143
33.3115	122
33.3189	142
33.3263	114
33.3337	140
33.3411	133
33.3485	155
33.3559	146
33.3633	153
33.3707	127
33.3781	151
33.3855	158
33.3929	159
33.4003	134
33.4077	172
33.4151	167
33.4225	179
33.4299	172
33.4373	168
33.4446	210
33.4520	193
33.4594	173
33.4668	233
33.4742	247
33.4816	222
33.4890	246
33.4964	261
33.5038	252
33.5112	304
33.5186	329
33.5260	291
33.5334	309
33.5408	315
33.5482	334
33.5556	341
33.5630	334
33.5704	341
33.5778	363
33.5852	372
33.5926	382
33.5999	413
33.6073	387
33.6147	427
33.6221	396
33.6295	407
33.6369	401
33.6443	385
33.6517	384
33.6591	377
33.6665	366
33.6739	357
33.6813	360
33.6887	332
33.6961	309
33.7035	350
33.7109	303
33.7183	328
33.7257	282
33.7331	241
33.7405	248
33.7479	249
33.7552	228
33.7626	195
33.7700	236
33.7774	214
33.7848	178
33.7922	180
33.7996	200
33.8070	195
33.8144	163
33.8218	170
33.8292	177
33.8366	179
33.8440	170
33.8514	167
33.8588	151
33.8662	140
33.8736	146
33.8810	157
33.8884	160
33.8958	139
33.9032	148
33.9105	154
33.9179	132
33.9253	152
33.9327	154
33.9401	169
33.9475	140
33.9549	159
33.9623	158
33.9697	151
33.9771	158
33.9845	156
33.9919	180
33.9993	150
34.0067	171
34.0141	173
34.0215	150
34.0289	163
34.0363	158
34.0437	172
34.0511	183
34.0585	167
34.0658	175
34.0732	159
34.0806	182
34.0880	175
34.0954	183
34.1028	171
34.1102	202
34.1176	162
34.1250	147
34.1324	174
34.1398	149
34.1472	164
34.1546	133
34.1620	154
34.1694	148
34.1768	154
34.1842	161
34.1916	159
34.1990	141
34.2064	179
34.2138	148
34.2211	128
34.2285	145
34.2359	118
34.2433	142
34.2507	149
34.2581	134
34.2655	106
34.2729	130
34.2803	128
34.2877	135
34.2951	114
34.3025	96
34.3099	110
34.3173	130
34.3247	98
34.3321	126
34.3395	123
34.3469	126
34.3543	101
34.3617	120
34.3691	92
34.3764	98
34.3838	113
34.3912	109
34.3986	101
34.4060	93
34.4134	107
34.4208	112
34.4282	100
34.4356	102
34.4430	99
34.4504	84
34.4578	95
34.4652	87
34.4726	86
34.4800	123
34.4874	102
34.4948	102
34.5022	83
34.5096	110
34.5170	127
34.5244	102
34.5317	84
34.5391	98
34.5465	114
34.5539	93
34.5613	97
34.5687	109
34.5761	104
34.5835	99
34.5909	101
34.5983	99
34.6057	109
34.6131	98
34.6205	111
34.6279	98
34.6353	87
34.6427	88
34.6501	112
34.6575	108
34.6649	96
34.6723	105
34.6797	83
34.6870	93
34.6944	93
34.7018	99
34.7092	118
34.7166	85
34.7240	92
34.7314	108
34.7388	101
34.7462	89
34.7536	97
34.7610	102
34.7684	100
34.7758	103
34.7832	112
34.7906	95
34.7980	91
34.8054	128
34.8128	102
34.8202	94
34.8276	101
34.8350	75
34.8423	106
34.8497	105
34.8571	88
34.8645	92
34.8719	92
34.8793	95
34.8867	97
34.8941	105
34.9015	91
34.9089	112
34.9163	108
34.9237	111
34.9311	110
34.9385	109
34.9459	110
34.9533	106
34.9607	114
34.9681	94
34.9755	103
34.9829	112
34.9903	118
34.9977	117
35.0050	89
35.0124	109
35.0198	102
35.0272	97
35.0346	104
35.0420	97
35.0494	110
35.0568	132
35.0642	125
35.0716	109
35.0790	110
35.0864	105
35.0938	109
35.1012	112
35.1086	112
35.1160	116
35.1234	121
35.1308	126
35.1382	110
35.1456	128
35.1530	120
35.1603	157
35.1677	137
35.1751	149
35.1825	168
35.1899	106
35.1973	137
35.2047	135
35.2121	138
35.2195	142
35.2269	134
35.2343	164
35.2417	156
35.2491	115
35.2565	145
35.2639	133
35.2713	154
35.2787	145
35.2861	145
35.2935	134
35.3009	122
35.3083	149
35.3156	128
35.3230	140
35.3304	141
35.3378	129
35.3452	144
35.3526	140
35.3600	107
35.3674	127
35.3748	110
35.3822	127
35.3896	119
35.3970	130
35.4044	114
35.4118	115
35.4192	111
35.4266	110
35.4340	120
35.4414	105
35.4488	123
35.4562	116
35.4636	117
35.4709	96
35.4783	124
35.4857	108
35.4931	103
35.5005	109
35.5079	119
35.5153	97
35.5227	98
35.5301	117
35.5375	131
35.5449	110
35.5523	115
35.5597	109
35.5671	121
35.5745	137
35.5819	106
35.5893	117
35.5967	109
35.6041	104
35.6115	113
35.6189	106
35.6262	99
35.6336	94
35.6410	119
35.6484	113
35.6558	124
35.6632	120
35.6706	107
35.6780	100
35.6854	106
35.6928	115
35.7002	104
35.7076	112
35.7150	128
35.7224	95
35.7298	115
35.7372	111
35.7446	104
35.7520	96
35.7594	86
35.7668	100
35.7742	102
35.7815	102
35.7889	106
35.7963	104
35.8037	94
35.8111	109
35.8185	111
35.8259	109
35.8333	116
35.8407	110
35.8481	109
35.8555	120
35.8629	108
35.8703	108
35.8777	91
35.8851	121
35.8925	90
35.8999	110
35.9073	124
35.9147	122
35.9221	108
35.9295	116
35.9368	108
35.9442	121
35.9516	135
35.9590	132
35.9664	132
35.9738	135
35.9812	138
35.9886	108
35.9960	138
36.0034	140
36.0108	132
36.0182	174
36.0256	172
36.0330	176
36.0404	173
36.0478	184
36.0552	180
36.0626	200
36.0700	199
36.0774	213
36.0848	194
36.0921	211
36.0995	233
36.1069	204
36.1143	239
36.1217	223
36.1291	218
36.1365	221
36.1439	240
36.1513	234
36.1587	275
36.1661	254
36.1735	243
36.1809	251
36.1883	237
36.1957	248
36.2031	217
36.2105	235
36.2179	229
36.2253	237
36.2327	197
36.2401	233
36.2474	242
36.2548	222
36.2622	246
36.2696	197
36.2770	210
36.2844	196
36.2918	208
36.2992	189
36.3066	201
36.3140	193
36.3214	203
36.3288	197
36.3362	201
36.3436	208
36.3510	171
36.3584	202
36.3658	171
36.3732	176
36.3806	189
36.3880	190
36.3954	177
36.4027	158
36.4101	207
36.4175	173
36.4249	183
36.4323	175
36.4397	158
36.4471	176
36.4545	169
36.4619	143
36.4693	152
36.4767	126
36.4841	168
36.4915	128
36.4989	159
36.5063	122
36.5137	132
36.5211	150
36.5285	138
36.5359	116
36.5433	134
36.5507	130
36.5580	135
36.5654	116
36.5728	96
36.5802	117
36.5876	119
36.5950	106
36.6024	103
36.6098	111
36.6172	114
36.6246	116
36.6320	117
36.6394	89
36.6468	111
36.6542	101
36.6616	101
36.6690	108
36.6764	104
36.6838	118
36.6912	95
36.6986	121
36.7060	89
36.7134	98
36.7207	95
36.7281	91
36.7355	97
36.7429	107
36.7503	84
36.7577	95
36.7651	105
36.7725	92
36.7799	120
36.7873	88
36.7947	91
36.8021	98
36.8095	96
36.8169	95
36.8243	80
36.8317	99
36.8391	89
36.8465	80
36.8539	97
36.8613	91
36.8687	90
36.8760	110
36.8834	103
36.8908	114
36.8982	112
36.9056	90
36.9130	119
36.9204	127
36.9278	107
36.9352	97
36.9426	125
36.9500	134
36.9574	119
36.9648	134
36.9722	116
36.9796	113
36.9870	104
36.9944	102
37.0018	118
37.0092	110
37.0166	104
37.0240	125
37.0313	109
37.0387	112
37.0461	120
37.0535	117
37.0609	127
37.0683	107
37.0757	113
37.0831	126
37.0905	127
37.0979	117
37.1053	136
37.1127	110
37.1201	116
37.1275	108
37.1349	122
37.1423	121
37.1497	115
37.1571	123
37.1645	134
37.1719	130
37.1793	119
37.1866	139
37.1940	115
37.2014	151
37.2088	106
37.2162	124
37.2236	147
37.2310	115
37.2384	121
37.2458	123
37.2532	127
37.2606	144
37.2680	136
37.2754	123
37.2828	129
37.2902	126
37.2976	121
37.3050	111
37.3124	139
37.3198	115
37.3272	117
37.3346	129
37.3419	110
37.3493	128
37.3567	110
37.3641	114
37.3715	115
37.3789	110
37.3863	115
37.3937	105
37.4011	97
37.4085	120
37.4159	104
37.4233	95
37.4307	117
37.4381	116
37.4455	112
37.4529	137
37.4603	107
37.4677	102
37.4751	116
37.4825	123
37.4899	104
37.4972	126
37.5046	113
37.5120	123
37.5194	115
37.5268	133
37.5342	134
37.5416	131
37.5490	140
37.5564	117
37.5638	101
37.5712	132
37.5786	127
37.5860	142
37.5934	128
37.6008	152
37.6082	134
37.6156	150
37.6230	169
37.6304	165
37.6378	164
37.6452	167
37.6525	191
37.6599	205
37.6673	168
37.6747	174
37.6821	202
37.6895	186
37.6969	165
37.7043	194
37.7117	173
37.7191	178
37.7265	187
37.7339	182
37.7413	180
37.7487	207
37.7561	197
37.7635	190
37.7709	180
37.7783	189
37.7857	192
37.7931	186
37.8005	174
37.8078	162
37.8152	171
37.8226	183
37.8300	154
37.8374	152
37.8448	162
37.8522	167
37.8596	143
37.8670	165
37.8744	139
37.8818	143
37.8892	143
37.8966	158
37.9040	133
37.9114	148
37.9188	146
37.9262	124
37.9336	126
37.9410	132
37.9484	113
37.9558	120
37.9631	105
37.9705	118
37.9779	109
37.9853	106
37.9927	106
38.0001	98
38.0075	111
38.0149	100
38.0223	104
38.0297	93
38.0371	115
38.0445	103
38.0519	101
38.0593	115
38.0667	123
38.0741	95
38.0815	110
38.0889	110
38.0963	91
38.1037	122
38.1111	126
38.1184	104
38.1258	100
38.1332	122
38.1406	101
38.1480	116
38.1554	101
38.1628	122
38.1702	130
38.1776	112
38.1850	97
38.1924	108
38.1998	136
38.2072	126
38.2146	109
38.2220	128
38.2294	121
38.2368	119
38.2442	122
38.2516	139
38.2590	138
38.2664	147
38.2738	135
38.2811	124
38.2885	144
38.2959	145
38.3033	155
38.3107	138
38.3181	146
38.3255	156
38.3329	171
38.3403	177
38.3477	145
38.3551	159
38.3625	175
38.3699	172
38.3773	157
38.3847	169
38.3921	174
38.3995	152
38.4069	151
38.4143	170
38.4217	173
38.4291	141
38.4364	182
38.4438	186
38.4512	180
38.4586	160
38.4660	183
38.4734	164
38.4808	152
38.4882	164
38.4956	159
38.5030	208
38.5104	195
38.5178	166
38.5252	173
38.5326	194
38.5400	179
38.5474	172
38.5548	181
38.5622	156
38.5696	184
38.5770	177
38.5844	173
38.5917	165
38.5991	141
38.6065	162
38.6139	158
38.6213	155
38.6287	148
38.6361	179
38.6435	150
38.6509	162
38.6583	147
38.6657	156
38.6731	133
38.6805	129
38.6879	112
38.6953	118
38.7027	116
38.7101	118
38.7175	110
38.7249	135
38.7323	110
38.7397	111
38.7470	126
38.7544	121
38.7618	121
38.7692	92
38.7766	120
38.7840	121
38.7914	116
38.7988	99
38.8062	89
38.8136	117
38.8210	112
38.8284	104
38.8358	90
38.8432	112
38.8506	111
38.8580	113
38.8654	111
38.8728	118
38.8802	91
38.8876	110
38.8950	117
38.9023	109
38.9097	103
38.9171	104
38.9245	106
38.9319	117
38.9393	102
38.9467	96
38.9541	80
38.9615	110
38.9689	102
38.9763	113
38.9837	133
38.9911	116
38.9985	104
39.0059	105
39.0133	117
39.0207	122
39.0281	111
39.0355	112
39.0429	120
39.0503	101
39.0576	89
39.0650	109
39.0724	120
39.0798	126
39.0872	107
39.0946	142
39.1020	123
39.1094	114
39.1168	114
39.1242	116
39.1316	101
39.1390	116
39.1464	140
39.1538	124
39.1612	136
39.1686	140
39.1760	131
39.1834	135
39.1908	119
39.1982	114
39.2056	151
39.2129	128
39.2203	147
39.2277	141
39.2351	179
39.2425	157
39.2499	145
39.2573	148
39.2647	158
39.2721	155
39.2795	163
39.2869	177
39.2943	170
39.3017	166
39.3091	169
39.3165	185
39.3239	186
39.3313	195
39.3387	204
39.3461	196
39.3535	184
39.3609	177
39.3682	198
39.3756	211
39.3830	195
39.3904	216
39.3978	201
39.4052	203
39.4126	217
39.4200	214
39.4274	204
39.4348	220
39.4422	203
39.4496	225
39.4570	212
39.4644	210
39.4718	214
39.4792	186
39.4866	187
39.4940	186
39.5014	177
39.5088	223
39.5162	211
39.5235	208
39.5309	212
39.5383	213
39.5457	184
39.5531	177
39.5605	215
39.5679	166
39.5753	155
39.5827	172
39.5901	186
39.5975	169
39.6049	193
39.6123	154
39.6197	176
39.6271	162
39.6345	158
39.6419	148
39.6493	143
39.6567	158
39.6641	129
39.6715	143
39.6788	137
39.6862	157
39.6936	156
39.7010	128
39.7084	154
39.7158	142
39.7232	151
39.7306	132
39.7380	155
39.7454	139
39.7528	162
39.7602	120
39.7676	136
39.7750	135
39.7824	152
39.7898	147
39.7972	135
39.8046	139
39.8120	112
39.8194	140
39.8268	169
39.8342	151
39.8415	144
39.8489	148
39.8563	146
39.8637	129
39.8711	141
39.8785	134
39.8859	136
39.8933	134
39.9007	142
39.9081	153
39.9155	131
39.9229	150
39.9303	117
39.9377	132
39.9451	146
39.9525	146
39.9599	149
39.9673	125
39.9747	143
39.9821	111
39.9895	114
39.9968	162
