2.0000	221
2.0074	206
2.0148	203
2.0222	196
2.0296	190
2.0370	208
2.0444	231
2.0518	197
2.0592	197
2.0666	191
2.0740	199
2.0813	210
2.0887	178
2.0961	204
2.1035	184
2.1109	201
2.1183	184
2.1257	198
2.1331	214
2.1405	213
2.1479	197
2.1553	181
2.1627	208
2.1701	193
2.1775	180
2.1849	211
2.1923	195
2.1997	219
2.2071	218
2.2145	216
2.2219	192
2.2293	208
2.2366	185
2.2440	184
2.2514	213
2.2588	209
2.2662	183
2.2736	188
2.2810	197
2.2884	205
2.2958	201
2.3032	155
2.3106	198
2.3180	200
2.3254	192
2.3328	214
2.3402	195
2.3476	219
2.3550	168
2.3624	197
2.3698	194
2.3772	194
2.3846	202
2.3919	177
2.3993	209
2.4067	219
2.4141	188
2.4215	186
2.4289	192
2.4363	204
2.4437	187
2.4511	184
2.4585	201
2.4659	192
2.4733	186
2.4807	191
2.4881	174
2.4955	208
2.5029	188
2.5103	194
2.5177	183
2.5251	192
2.5325	218
2.5399	160
2.5472	216
2.5546	187
2.5620	182
2.5694	166
2.5768	175
2.5842	182
2.5916	197
2.5990	177
2.6064	218
2.6138	212
2.6212	200
2.6286	177
2.6360	180
2.6434	183
2.6508	196
2.6582	185
2.6656	190
2.6730	209
2.6804	192
2.6878	171
2.6952	206
2.7025	178
2.7099	201
2.7173	176
2.7247	179
2.7321	194
2.7395	185
2.7469	156
2.7543	196
2.7617	181
2.7691	197
2.7765	193
2.7839	188
2.7913	171
2.7987	194
2.8061	174
2.8135	182
2.8209	176
2.8283	174
2.8357	180
2.8431	193
2.8505	193
2.8579	187
2.8652	205
2.8726	183
2.8800	182
2.8874	182
2.8948	181
2.9022	190
2.9096	167
2.9170	182
2.9244	184
2.9318	189
2.9392	160
2.9466	168
2.9540	181
2.9614	179
2.9688	193
2.9762	175
2.9836	178
2.9910	181
2.9984	193
3.0058	173
3.0132	171
3.0205	174
3.0279	163
3.0353	191
3.0427	204
3.0501	190
3.0575	184
3.0649	195
3.0723	179
3.0797	158
3.0871	184
3.0945	176
3.1019	179
3.1093	173
3.1167	162
3.1241	182
3.1315	164
3.1389	171
3.1463	181
3.1537	180
3.1611	165
3.1685	144
3.1758	182
3.1832	185
3.1906	171
3.1980	179
3.2054	200
3.2128	176
3.2202	171
3.2276	176
3.2350	166
3.2424	173
3.2498	175
3.2572	191
3.2646	169
3.2720	141
3.2794	197
3.2868	172
3.2942	174
3.3016	157
3.3090	177
3.3164	154
3.3238	163
3.3311	166
3.3385	166
3.3459	163
3.3533	192
3.3607	152
3.3681	169
3.3755	159
3.3829	170
3.3903	155
3.3977	173
3.4051	157
3.4125	165
3.4199	184
3.4273	129
3.4347	152
3.4421	171
3.4495	180
3.4569	160
3.4643	183
3.4717	183
3.4791	189
3.4864	177
3.4938	175
3.5012	182
3.5086	163
3.5160	156
3.5234	195
3.5308	178
3.5382	166
3.5456	177
3.5530	162
3.5604	138
3.5678	175
3.5752	181
3.5826	162
3.5900	193
3.5974	178
3.6048	165
3.6122	168
3.6196	164
3.6270	168
3.6344	171
3.6417	180
3.6491	169
3.6565	181
3.6639	158
3.6713	188
3.6787	163
3.6861	165
3.6935	155
3.7009	175
3.7083	143
3.7157	171
3.7231	170
3.7305	165
3.7379	148
3.7453	177
3.7527	149
3.7601	147
3.7675	164
3.7749	154
3.7823	145
3.7897	183
3.7970	143
3.8044	145
3.8118	148
3.8192	146
3.8266	156
3.8340	176
3.8414	157
3.8488	166
3.8562	162
3.8636	147
3.8710	168
3.8784	142
3.8858	135
3.8932	150
3.9006	146
3.9080	160
3.9154	153
3.9228	153
3.9302	169
3.9376	148
3.9450	143
3.9523	152
3.9597	156
3.9671	154
3.9745	147
3.9819	141
3.9893	141
3.9967	145
4.0041	149
4.0115	134
4.0189	142
4.0263	141
4.0337	171
4.0411	150
4.0485	150
4.0559	161
4.0633	139
4.0707	157
4.0781	146
4.0855	153
4.0929	147
4.1003	157
4.1076	144
4.1150	118
4.1224	128
4.1298	127
4.1372	139
4.1446	144
4.1520	129
4.1594	131
4.1668	122
4.1742	143
4.1816	154
4.1890	145
4.1964	135
4.2038	123
4.2112	144
4.2186	135
4.2260	146
4.2334	134
4.2408	154
4.2482	155
4.2556	148
4.2629	149
4.2703	155
4.2777	133
4.2851	123
4.2925	129
4.2999	146
4.3073	106
4.3147	140
4.3221	133
4.3295	144
4.3369	125
4.3443	136
4.3517	136
4.3591	137
4.3665	149
4.3739	150
4.3813	133
4.3887	134
4.3961	149
4.4035	134
4.4109	129
4.4183	120
4.4256	144
4.4330	130
4.4404	150
4.4478	131
4.4552	106
4.4626	148
4.4700	123
4.4774	113
4.4848	123
4.4922	133
4.4996	128
4.5070	137
4.5144	125
4.5218	122
4.5292	146
4.5366	113
4.5440	120
4.5514	140
4.5588	146
4.5662	125
4.5736	118
4.5809	148
4.5883	134
4.5957	137
4.6031	138
4.6105	123
4.6179	128
4.6253	104
4.6327	136
4.6401	121
4.6475	124
4.6549	127
4.6623	127
4.6697	137
4.6771	127
4.6845	112
4.6919	120
4.6993	131
4.7067	118
4.7141	116
4.7215	129
4.7289	111
4.7362	120
4.7436	113
4.7510	125
4.7584	119
4.7658	113
4.7732	133
4.7806	123
4.7880	130
4.7954	149
4.8028	132
4.8102	113
4.8176	148
4.8250	111
4.8324	103
4.8398	120
4.8472	118
4.8546	125
4.8620	106
4.8694	100
4.8768	106
4.8842	127
4.8915	112
4.8989	114
4.9063	134
4.9137	115
4.9211	129
4.9285	110
4.9359	124
4.9433	108
4.9507	117
4.9581	109
4.9655	99
4.9729	111
4.9803	112
4.9877	118
4.9951	140
5.0025	92
5.0099	114
5.0173	123
5.0247	103
5.0321	104
5.0395	117
5.0468	133
5.0542	122
5.0616	110
5.0690	111
5.0764	103
5.0838	113
5.0912	126
5.0986	119
5.1060	100
5.1134	113
5.1208	123
5.1282	130
5.1356	91
5.1430	112
5.1504	117
5.1578	102
5.1652	112
5.1726	110
5.1800	110
5.1874	123
5.1948	115
5.2021	100
5.2095	102
5.2169	104
5.2243	100
5.2317	126
5.2391	103
5.2465	108
5.2539	115
5.2613	114
5.2687	119
5.2761	110
5.2835	124
5.2909	104
5.2983	111
5.3057	104
5.3131	118
5.3205	105
5.3279	98
5.3353	105
5.3427	76
5.3501	112
5.3574	110
5.3648	105
5.3722	111
5.3796	99
5.3870	105
5.3944	102
5.4018	81
5.4092	124
5.4166	112
5.4240	104
5.4314	111
5.4388	82
5.4462	107
5.4536	108
5.4610	119
5.4684	92
5.4758	111
5.4832	101
5.4906	114
5.4980	111
5.5054	98
5.5127	123
5.5201	103
5.5275	89
5.5349	106
5.5423	107
5.5497	101
5.5571	104
5.5645	100
5.5719	108
5.5793	108
5.5867	89
5.5941	97
5.6015	105
5.6089	98
5.6163	96
5.6237	98
5.6311	92
5.6385	110
5.6459	87
5.6533	87
5.6607	96
5.6680	107
5.6754	92
5.6828	96
5.6902	101
5.6976	97
5.7050	104
5.7124	103
5.7198	109
5.7272	101
5.7346	93
5.7420	88
5.7494	97
5.7568	108
5.7642	106
5.7716	90
5.7790	104
5.7864	121
5.7938	107
5.8012	118
5.8086	100
5.8160	98
5.8233	113
5.8307	128
5.8381	108
5.8455	112
5.8529	125
5.8603	112
5.8677	118
5.8751	114
5.8825	110
5.8899	115
5.8973	132
5.9047	130
5.9121	145
5.9195	121
5.9269	118
5.9343	123
5.9417	122
5.9491	122
5.9565	118
5.9639	122
5.9713	170
5.9786	145
5.9860	140
5.9934	201
6.0008	239
6.0082	202
6.0156	314
6.0230	327
6.0304	356
6.0378	345
6.0452	338
6.0526	333
6.0600	265
6.0674	244
6.0748	185
6.0822	188
6.0896	137
6.0970	141
6.1044	101
6.1118	110
6.1192	109
6.1266	124
6.1340	107
6.1413	105
6.1487	112
6.1561	110
6.1635	102
6.1709	112
6.1783	114
6.1857	109
6.1931	77
6.2005	93
6.2079	87
6.2153	105
6.2227	101
6.2301	113
6.2375	97
6.2449	104
6.2523	92
6.2597	110
6.2671	111
6.2745	108
6.2819	103
6.2893	91
6.2966	108
6.3040	87
6.3114	95
6.3188	103
6.3262	101
6.3336	107
6.3410	79
6.3484	109
6.3558	96
6.3632	93
6.3706	86
6.3780	115
6.3854	100
6.3928	86
6.4002	96
6.4076	94
6.4150	99
6.4224	85
6.4298	104
6.4372	88
6.4446	105
6.4519	104
6.4593	112
6.4667	86
6.4741	113
6.4815	89
6.4889	84
6.4963	92
6.5037	78
6.5111	103
6.5185	95
6.5259	109
6.5333	93
6.5407	81
6.5481	92
6.5555	110
6.5629	93
6.5703	94
6.5777	104
6.5851	95
6.5925	82
6.5999	94
6.6072	90
6.6146	113
6.6220	81
6.6294	98
6.6368	107
6.6442	88
6.6516	99
6.6590	93
6.6664	104
6.6738	92
6.6812	90
6.6886	95
6.6960	104
6.7034	90
6.7108	101
6.7182	95
6.7256	99
6.7330	107
6.7404	97
6.7478	98
6.7552	67
6.7625	107
6.7699	82
6.7773	86
6.7847	100
6.7921	91
6.7995	95
6.8069	108
6.8143	82
6.8217	103
6.8291	93
6.8365	98
6.8439	91
6.8513	107
6.8587	89
6.8661	95
6.8735	99
6.8809	87
6.8883	89
6.8957	88
6.9031	83
6.9105	94
6.9178	100
6.9252	93
6.9326	93
6.9400	92
6.9474	87
6.9548	88
6.9622	75
6.9696	96
6.9770	94
6.9844	74
6.9918	101
6.9992	100
7.0066	114
7.0140	85
7.0214	96
7.0288	104
7.0362	108
7.0436	115
7.0510	105
7.0584	106
7.0658	83
7.0731	101
7.0805	95
7.0879	96
7.0953	103
7.1027	97
7.1101	87
7.1175	103
7.1249	88
7.1323	110
7.1397	78
7.1471	86
7.1545	87
7.1619	78
7.1693	93
7.1767	87
7.1841	88
7.1915	105
7.1989	106
7.2063	89
7.2137	99
7.2211	80
7.2284	89
7.2358	82
7.2432	96
7.2506	89
7.2580	92
7.2654	95
7.2728	99
7.2802	83
7.2876	105
7.2950	99
7.3024	78
7.3098	85
7.3172	70
7.3246	75
7.3320	86
7.3394	96
7.3468	86
7.3542	92
7.3616	94
7.3690	88
7.3764	91
7.3837	81
7.3911	100
7.3985	103
7.4059	95
7.4133	99
7.4207	88
7.4281	88
7.4355	78
7.4429	99
7.4503	97
7.4577	104
7.4651	91
7.4725	92
7.4799	94
7.4873	83
7.4947	82
7.5021	105
7.5095	103
7.5169	80
7.5243	87
7.5317	82
7.5390	93
7.5464	96
7.5538	83
7.5612	94
7.5686	83
7.5760	98
7.5834	81
7.5908	101
7.5982	89
7.6056	84
7.6130	91
7.6204	93
7.6278	98
7.6352	108
7.6426	75
7.6500	101
7.6574	99
7.6648	89
7.6722	88
7.6796	86
7.6870	117
7.6944	109
7.7017	117
7.7091	92
7.7165	108
7.7239	98
7.7313	82
7.7387	96
7.7461	89
7.7535	114
7.7609	109
7.7683	103
7.7757	90
7.7831	105
7.7905	105
7.7979	108
7.8053	86
7.8127	92
7.8201	96
7.8275	84
7.8349	109
7.8423	83
7.8497	75
7.8570	87
7.8644	101
7.8718	102
7.8792	97
7.8866	100
7.8940	92
7.9014	89
7.9088	97
7.9162	105
7.9236	91
7.9310	80
7.9384	97
7.9458	96
7.9532	86
7.9606	100
7.9680	91
7.9754	85
7.9828	91
7.9902	101
7.9976	89
8.0050	92
8.0123	108
8.0197	92
8.0271	95
8.0345	119
8.0419	103
8.0493	81
8.0567	104
8.0641	101
8.0715	118
8.0789	87
8.0863	92
8.0937	112
8.1011	123
8.1085	102
8.1159	119
8.1233	115
8.1307	119
8.1381	97
8.1455	107
8.1529	115
8.1603	140
8.1676	116
8.1750	136
8.1824	155
8.1898	146
8.1972	115
8.2046	155
8.2120	178
8.2194	183
8.2268	179
8.2342	200
8.2416	186
8.2490	204
8.2564	197
8.2638	226
8.2712	244
8.2786	236
8.2860	223
8.2934	261
8.3008	309
8.3082	284
8.3156	289
8.3229	313
8.3303	316
8.3377	327
8.3451	387
8.3525	375
8.3599	434
8.3673	411
8.3747	495
8.3821	499
8.3895	567
8.3969	675
8.4043	714
8.4117	790
8.4191	897
8.4265	975
8.4339	1144
8.4413	1270
8.4487	1397
8.4561	1668
8.4635	1898
8.4709	2308
8.4782	2637
8.4856	3144
8.4930	3983
8.5004	4701
8.5078	5523
8.5152	6250
8.5226	6637
8.5300	6495
8.5374	6309
8.5448	5796
8.5522	5134
8.5596	4066
8.5670	3365
8.5744	2507
8.5818	1953
8.5892	1483
8.5966	1070
8.6040	842
8.6114	632
8.6188	488
8.6262	439
8.6335	378
8.6409	346
8.6483	292
8.6557	281
8.6631	243
8.6705	260
8.6779	223
8.6853	216
8.6927	211
8.7001	213
8.7075	203
8.7149	181
8.7223	188
8.7297	157
8.7371	165
8.7445	184
8.7519	160
8.7593	189
8.7667	186
8.7741	173
8.7815	150
8.7888	151
8.7962	163
8.8036	153
8.8110	145
8.8184	155
8.8258	155
8.8332	151
8.8406	150
8.8480	183
8.8554	150
8.8628	146
8.8702	150
8.8776	145
8.8850	161
8.8924	138
8.8998	132
8.9072	160
8.9146	132
8.9220	145
8.9294	140
8.9368	137
8.9441	115
8.9515	135
8.9589	147
8.9663	137
8.9737	132
8.9811	123
8.9885	119
8.9959	131
9.0033	128
9.0107	130
9.0181	132
9.0255	122
9.0329	140
9.0403	145
9.0477	141
9.0551	142
9.0625	112
9.0699	112
9.0773	118
9.0847	121
9.0921	123
9.0994	138
9.1068	141
9.1142	130
9.1216	109
9.1290	119
9.1364	148
9.1438	108
9.1512	114
9.1586	112
9.1660	121
9.1734	115
9.1808	117
9.1882	122
9.1956	139
9.2030	114
9.2104	126
9.2178	120
9.2252	120
9.2326	133
9.2400	118
9.2474	123
9.2548	136
9.2621	121
9.2695	114
9.2769	114
9.2843	123
9.2917	101
9.2991	130
9.3065	117
9.3139	104
9.3213	120
9.3287	145
9.3361	101
9.3435	120
9.3509	115
9.3583	95
9.3657	111
9.3731	126
9.3805	104
9.3879	116
9.3953	99
9.4027	104
9.4101	111
9.4174	122
9.4248	98
9.4322	111
9.4396	112
9.4470	132
9.4544	117
9.4618	103
9.4692	125
9.4766	105
9.4840	134
9.4914	104
9.4988	92
9.5062	102
9.5136	127
9.5210	99
9.5284	122
9.5358	121
9.5432	105
9.5506	117
9.5580	112
9.5654	128
9.5727	123
9.5801	132
9.5875	90
9.5949	114
9.6023	114
9.6097	110
9.6171	105
9.6245	120
9.6319	114
9.6393	109
9.6467	93
9.6541	117
9.6615	111
9.6689	80
9.6763	124
9.6837	129
9.6911	100
9.6985	121
9.7059	115
9.7133	98
9.7207	107
9.7280	123
9.7354	105
9.7428	111
9.7502	100
9.7576	102
9.7650	95
9.7724	112
9.7798	86
9.7872	112
9.7946	109
9.8020	94
9.8094	105
9.8168	118
9.8242	103
9.8316	96
9.8390	94
9.8464	107
9.8538	97
9.8612	95
9.8686	95
9.8760	108
9.8833	112
9.8907	105
9.8981	108
9.9055	93
9.9129	95
9.9203	90
9.9277	87
9.9351	97
9.9425	92
9.9499	103
9.9573	113
9.9647	113
9.9721	117
9.9795	91
9.9869	89
9.9943	97
10.0017	113
10.0091	115
10.0165	114
10.0239	94
10.0313	106
10.0386	83
10.0460	104
10.0534	92
10.0608	94
10.0682	89
10.0756	116
10.0830	115
10.0904	108
10.0978	97
10.1052	82
10.1126	90
10.1200	95
10.1274	112
10.1348	117
10.1422	102
10.1496	106
10.1570	105
10.1644	104
10.1718	110
10.1792	82
10.1866	108
10.1939	103
10.2013	95
10.2087	88
10.2161	125
10.2235	92
10.2309	111
10.2383	90
10.2457	92
10.2531	86
10.2605	84
10.2679	113
10.2753	96
10.2827	86
10.2901	85
10.2975	122
10.3049	90
10.3123	103
10.3197	117
10.3271	105
10.3345	84
10.3419	89
10.3492	96
10.3566	96
10.3640	79
10.3714	91
10.3788	105
10.3862	104
10.3936	97
10.4010	102
10.4084	97
10.4158	97
10.4232	99
10.4306	114
10.4380	88
10.4454	84
10.4528	94
10.4602	95
10.4676	121
10.4750	110
10.4824	103
10.4898	98
10.4972	94
10.5045	107
10.5119	88
10.5193	101
10.5267	88
10.5341	114
10.5415	104
10.5489	101
10.5563	102
10.5637	112
10.5711	86
10.5785	105
10.5859	84
10.5933	85
10.6007	83
10.6081	103
10.6155	86
10.6229	116
10.6303	101
10.6377	111
10.6451	120
10.6525	93
10.6598	99
10.6672	88
10.6746	94
10.6820	89
10.6894	93
10.6968	94
10.7042	99
10.7116	90
10.7190	92
10.7264	99
10.7338	90
10.7412	94
10.7486	100
10.7560	86
10.7634	89
10.7708	107
10.7782	102
10.7856	113
10.7930	108
10.8004	100
10.8078	89
10.8151	112
10.8225	122
10.8299	99
10.8373	98
10.8447	93
10.8521	91
10.8595	97
10.8669	105
10.8743	113
10.8817	104
10.8891	92
10.8965	106
10.9039	104
10.9113	102
10.9187	94
10.9261	83
10.9335	84
10.9409	92
10.9483	102
10.9557	94
10.9631	101
10.9705	81
10.9778	94
10.9852	98
10.9926	81
11.0000	84
11.0074	93
11.0148	90
11.0222	108
11.0296	96
11.0370	106
11.0444	92
11.0518	100
11.0592	91
11.0666	102
11.0740	93
11.0814	113
11.0888	85
11.0962	99
11.1036	100
11.1110	115
11.1184	100
11.1258	97
11.1331	104
11.1405	90
11.1479	111
11.1553	103
11.1627	104
11.1701	94
11.1775	110
11.1849	119
11.1923	110
11.1997	109
11.2071	78
11.2145	107
11.2219	126
11.2293	103
11.2367	96
11.2441	111
11.2515	107
11.2589	102
11.2663	125
11.2737	98
11.2811	96
11.2884	95
11.2958	86
11.3032	88
11.3106	93
11.3180	96
11.3254	117
11.3328	110
11.3402	126
11.3476	108
11.3550	116
11.3624	106
11.3698	97
11.3772	123
11.3846	105
11.3920	104
11.3994	111
11.4068	128
11.4142	107
11.4216	116
11.4290	117
11.4364	106
11.4437	122
11.4511	102
11.4585	105
11.4659	121
11.4733	105
11.4807	115
11.4881	150
11.4955	109
11.5029	125
11.5103	107
11.5177	118
11.5251	140
11.5325	150
11.5399	134
11.5473	151
11.5547	162
11.5621	158
11.5695	157
11.5769	181
11.5843	182
11.5917	223
11.5990	207
11.6064	268
11.6138	258
11.6212	250
11.6286	297
11.6360	319
11.6434	376
11.6508	458
11.6582	492
11.6656	623
11.6730	693
11.6804	862
11.6878	1018
11.6952	1105
11.7026	1255
11.7100	1287
11.7174	1334
11.7248	1332
11.7322	1355
11.7396	1224
11.7470	1071
11.7543	965
11.7617	770
11.7691	656
11.7765	541
11.7839	403
11.7913	378
11.7987	303
11.8061	248
11.8135	200
11.8209	167
11.8283	158
11.8357	172
11.8431	174
11.8505	147
11.8579	154
11.8653	158
11.8727	123
11.8801	122
11.8875	122
11.8949	126
11.9023	134
11.9096	141
11.9170	130
11.9244	153
11.9318	143
11.9392	173
11.9466	149
11.9540	152
11.9614	149
11.9688	144
11.9762	134
11.9836	129
11.9910	146
11.9984	152
12.0058	146
12.0132	158
12.0206	127
12.0280	137
12.0354	156
12.0428	134
12.0502	150
12.0576	130
12.0649	141
12.0723	157
12.0797	160
12.0871	133
12.0945	155
12.1019	139
12.1093	149
12.1167	140
12.1241	141
12.1315	152
12.1389	152
12.1463	152
12.1537	171
12.1611	182
12.1685	186
12.1759	178
12.1833	205
12.1907	212
12.1981	214
12.2055	214
12.2129	239
12.2202	249
12.2276	252
12.2350	296
12.2424	313
12.2498	334
12.2572	381
12.2646	437
12.2720	436
12.2794	540
12.2868	624
12.2942	772
12.3016	836
12.3090	998
12.3164	1146
12.3238	1390
12.3312	1605
12.3386	1931
12.3460	2138
12.3534	2231
12.3608	2463
12.3682	2358
12.3755	2342
12.3829	2208
12.3903	2108
12.3977	1725
12.4051	1614
12.4125	1240
12.4199	1069
12.4273	868
12.4347	755
12.4421	564
12.4495	462
12.4569	342
12.4643	307
12.4717	263
12.4791	244
12.4865	231
12.4939	205
12.5013	185
12.5087	168
12.5161	171
12.5235	165
12.5309	166
12.5382	163
12.5456	169
12.5530	161
12.5604	151
12.5678	148
12.5752	149
12.5826	147
12.5900	145
12.5974	137
12.6048	153
12.6122	139
12.6196	117
12.6270	153
12.6344	147
12.6418	129
12.6492	148
12.6566	116
12.6640	130
12.6714	130
12.6788	126
12.6862	132
12.6935	140
12.7009	130
12.7083	119
12.7157	141
12.7231	114
12.7305	105
12.7379	145
12.7453	127
12.7527	124
12.7601	120
12.7675	114
12.7749	137
12.7823	136
12.7897	137
12.7971	119
12.8045	124
12.8119	128
12.8193	151
12.8267	128
12.8341	115
12.8415	136
12.8488	135
12.8562	119
12.8636	129
12.8710	136
12.8784	122
12.8858	134
12.8932	148
12.9006	130
12.9080	123
12.9154	131
12.9228	128
12.9302	123
12.9376	148
12.9450	153
12.9524	133
12.9598	148
12.9672	129
12.9746	146
12.9820	138
12.9894	152
12.9968	146
13.0041	131
13.0115	141
13.0189	153
13.0263	145
13.0337	149
13.0411	156
13.0485	165
13.0559	150
13.0633	158
13.0707	164
13.0781	149
13.0855	194
13.0929	172
13.1003	175
13.1077	201
13.1151	208
13.1225	211
13.1299	217
13.1373	269
13.1447	253
13.1521	282
13.1594	342
13.1668	383
13.1742	424
13.1816	505
13.1890	601
13.1964	649
13.2038	790
13.2112	951
13.2186	1139
13.2260	1318
13.2334	1484
13.2408	1451
13.2482	1572
13.2556	1603
13.2630	1481
13.2704	1419
13.2778	1341
13.2852	1164
13.2926	974
13.3000	795
13.3074	658
13.3147	543
13.3221	492
13.3295	391
13.3369	319
13.3443	259
13.3517	260
13.3591	255
13.3665	245
13.3739	205
13.3813	193
13.3887	191
13.3961	204
13.4035	168
13.4109	185
13.4183	160
13.4257	224
13.4331	196
13.4405	193
13.4479	190
13.4553	163
13.4627	171
13.4700	205
13.4774	189
13.4848	194
13.4922	224
13.4996	212
13.5070	214
13.5144	207
13.5218	210
13.5292	252
13.5366	272
13.5440	285
13.5514	315
13.5588	332
13.5662	387
13.5736	406
13.5810	412
13.5884	538
13.5958	633
13.6032	692
13.6106	812
13.6180	925
13.6253	1066
13.6327	1276
13.6401	1511
13.6475	1810
13.6549	2054
13.6623	2337
13.6697	2647
13.6771	2816
13.6845	2936
13.6919	2864
13.6993	2719
13.7067	2480
13.7141	2241
13.7215	1938
13.7289	1660
13.7363	1281
13.7437	1019
13.7511	808
13.7585	692
13.7659	568
13.7733	435
13.7806	379
13.7880	318
13.7954	292
13.8028	276
13.8102	246
13.8176	227
13.8250	198
13.8324	188
13.8398	192
13.8472	161
13.8546	196
13.8620	185
13.8694	178
13.8768	165
13.8842	178
13.8916	173
13.8990	160
13.9064	168
13.9138	134
13.9212	164
13.9286	138
13.9359	181
13.9433	137
13.9507	147
13.9581	169
13.9655	150
13.9729	146
13.9803	143
13.9877	150
13.9951	132
14.0025	147
14.0099	147
14.0173	168
14.0247	145
14.0321	120
14.0395	147
14.0469	128
14.0543	125
14.0617	137
14.0691	137
14.0765	129
14.0839	118
14.0913	127
14.0986	141
14.1060	124
14.1134	152
14.1208	137
14.1282	137
14.1356	134
14.1430	119
14.1504	149
14.1578	120
14.1652	136
14.1726	131
14.1800	134
14.1874	155
14.1948	130
14.2022	141
14.2096	134
14.2170	138
14.2244	133
14.2318	132
14.2392	148
14.2466	105
14.2539	125
14.2613	141
14.2687	134
14.2761	126
14.2835	162
14.2909	131
14.2983	162
14.3057	155
14.3131	160
14.3205	160
14.3279	169
14.3353	190
14.3427	197
14.3501	205
14.3575	224
14.3649	229
14.3723	259
14.3797	260
14.3871	241
14.3945	276
14.4019	270
14.4092	259
14.4166	266
14.4240	260
14.4314	225
14.4388	193
14.4462	192
14.4536	173
14.4610	186
14.4684	159
14.4758	148
14.4832	153
14.4906	138
14.4980	150
14.5054	131
14.5128	129
14.5202	117
14.5276	121
14.5350	125
14.5424	136
14.5498	107
14.5572	141
14.5645	121
14.5719	124
14.5793	114
14.5867	106
14.5941	128
14.6015	130
14.6089	136
14.6163	110
14.6237	116
14.6311	129
14.6385	139
14.6459	122
14.6533	135
14.6607	106
14.6681	110
14.6755	124
14.6829	135
14.6903	125
14.6977	131
14.7051	123
14.7125	108
14.7198	105
14.7272	113
14.7346	114
14.7420	109
14.7494	122
14.7568	118
14.7642	103
14.7716	105
14.7790	106
14.7864	116
14.7938	126
14.8012	105
14.8086	100
14.8160	115
14.8234	122
14.8308	122
14.8382	109
14.8456	114
14.8530	101
14.8604	113
14.8678	108
14.8751	110
14.8825	113
14.8899	105
14.8973	121
14.9047	106
14.9121	113
14.9195	120
14.9269	123
14.9343	106
14.9417	101
14.9491	118
14.9565	110
14.9639	91
14.9713	100
14.9787	128
14.9861	95
14.9935	121
15.0009	99
15.0083	118
15.0157	112
15.0231	119
15.0304	108
15.0378	122
15.0452	93
15.0526	100
15.0600	119
15.0674	98
15.0748	103
15.0822	91
15.0896	98
15.0970	112
15.1044	116
15.1118	123
15.1192	103
15.1266	91
15.1340	119
15.1414	117
15.1488	98
15.1562	102
15.1636	109
15.1710	106
15.1784	102
15.1857	108
15.1931	100
15.2005	112
15.2079	109
15.2153	122
15.2227	109
15.2301	104
15.2375	110
15.2449	109
15.2523	102
15.2597	120
15.2671	106
15.2745	113
15.2819	122
15.2893	99
15.2967	112
15.3041	100
15.3115	90
15.3189	106
15.3263	103
15.3337	104
15.3410	121
15.3484	89
15.3558	114
15.3632	92
15.3706	105
15.3780	113
15.3854	107
15.3928	112
15.4002	96
15.4076	113
15.4150	84
15.4224	103
15.4298	92
15.4372	114
15.4446	119
15.4520	124
15.4594	121
15.4668	121
15.4742	135
15.4816	135
15.4890	135
15.4963	146
15.5037	140
15.5111	163
15.5185	148
15.5259	136
15.5333	183
15.5407	149
15.5481	163
15.5555	158
15.5629	150
15.5703	148
15.5777	134
15.5851	153
15.5925	121
15.5999	145
15.6073	140
15.6147	126
15.6221	120
15.6295	109
15.6369	108
15.6443	123
15.6516	124
15.6590	107
15.6664	92
15.6738	74
15.6812	87
15.6886	116
15.6960	93
15.7034	97
15.7108	114
15.7182	104
15.7256	89
15.7330	105
15.7404	83
15.7478	118
15.7552	100
15.7626	94
15.7700	101
15.7774	95
15.7848	116
15.7922	109
15.7996	83
15.8070	88
15.8143	107
15.8217	102
15.8291	114
15.8365	88
15.8439	83
15.8513	99
15.8587	87
15.8661	122
15.8735	108
15.8809	94
15.8883	95
15.8957	86
15.9031	105
15.9105	109
15.9179	104
15.9253	96
15.9327	89
15.9401	91
15.9475	103
15.9549	93
15.9623	94
15.9696	104
15.9770	112
15.9844	104
15.9918	97
15.9992	120
16.0066	100
16.0140	86
16.0214	98
16.0288	96
16.0362	89
16.0436	94
16.0510	100
16.0584	108
16.0658	94
16.0732	95
16.0806	102
16.0880	89
16.0954	101
16.1028	111
16.1102	105
16.1176	88
16.1249	101
16.1323	100
16.1397	96
16.1471	98
16.1545	100
16.1619	101
16.1693	103
16.1767	103
16.1841	121
16.1915	91
16.1989	108
16.2063	110
16.2137	103
16.2211	89
16.2285	90
16.2359	96
16.2433	104
16.2507	95
16.2581	91
16.2655	110
16.2729	114
16.2802	97
16.2876	107
16.2950	105
16.3024	103
16.3098	99
16.3172	108
16.3246	112
16.3320	104
16.3394	102
16.3468	122
16.3542	94
16.3616	98
16.3690	108
16.3764	98
16.3838	112
16.3912	87
16.3986	97
16.4060	105
16.4134	83
16.4208	91
16.4282	110
16.4355	112
16.4429	89
16.4503	118
16.4577	106
16.4651	126
16.4725	123
16.4799	117
16.4873	114
16.4947	112
16.5021	122
16.5095	131
16.5169	127
16.5243	114
16.5317	117
16.5391	120
16.5465	100
16.5539	129
16.5613	134
16.5687	134
16.5761	122
16.5835	134
16.5908	132
16.5982	125
16.6056	145
16.6130	136
16.6204	156
16.6278	171
16.6352	162
16.6426	190
16.6500	152
16.6574	181
16.6648	210
16.6722	174
16.6796	213
16.6870	247
16.6944	237
16.7018	240
16.7092	247
16.7166	314
16.7240	307
16.7314	339
16.7388	373
16.7461	370
16.7535	421
16.7609	499
16.7683	486
16.7757	558
16.7831	573
16.7905	607
16.7979	652
16.8053	672
16.8127	750
16.8201	747
16.8275	735
16.8349	696
16.8423	710
16.8497	680
16.8571	642
16.8645	637
16.8719	574
16.8793	512
16.8867	474
16.8941	449
16.9014	354
16.9088	376
16.9162	364
16.9236	358
16.9310	361
16.9384	363
16.9458	389
16.9532	396
16.9606	436
16.9680	508
16.9754	526
16.9828	654
16.9902	751
16.9976	905
17.0050	1103
17.0124	1136
17.0198	1250
17.0272	1391
17.0346	1296
17.0420	1386
17.0494	1331
17.0567	1197
17.0641	1143
17.0715	1026
17.0789	868
17.0863	830
17.0937	631
17.1011	511
17.1085	464
17.1159	366
17.1233	326
17.1307	290
17.1381	269
17.1455	227
17.1529	208
17.1603	177
17.1677	185
17.1751	146
17.1825	185
17.1899	163
17.1973	139
17.2047	138
17.2120	134
17.2194	148
17.2268	145
17.2342	159
17.2416	140
17.2490	143
17.2564	124
17.2638	139
17.2712	116
17.2786	139
17.2860	125
17.2934	118
17.3008	138
17.3082	138
17.3156	118
17.3230	114
17.3304	96
17.3378	132
17.3452	124
17.3526	125
17.3600	126
17.3674	135
17.3747	119
17.3821	119
17.3895	113
17.3969	110
17.4043	117
17.4117	119
17.4191	120
17.4265	112
17.4339	110
17.4413	112
17.4487	112
17.4561	116
17.4635	119
17.4709	129
17.4783	113
17.4857	113
17.4931	112
17.5005	126
17.5079	124
17.5153	125
17.5227	150
17.5300	149
17.5374	120
17.5448	126
17.5522	111
17.5596	139
17.5670	115
17.5744	154
17.5818	135
17.5892	100
17.5966	136
17.6040	142
17.6114	132
17.6188	153
17.6262	150
17.6336	154
17.6410	167
17.6484	178
17.6558	194
17.6632	194
17.6706	188
17.6780	203
17.6853	220
17.6927	253
17.7001	236
17.7075	260
17.7149	245
17.7223	306
17.7297	313
17.7371	300
17.7445	370
17.7519	379
17.7593	432
17.7667	472
17.7741	542
17.7815	564
17.7889	657
17.7963	743
17.8037	756
17.8111	809
17.8185	835
17.8259	933
17.8333	914
17.8406	932
17.8480	879
17.8554	939
17.8628	857
17.8702	869
17.8776	779
17.8850	729
17.8924	650
17.8998	553
17.9072	473
17.9146	490
17.9220	384
17.9294	316
17.9368	294
17.9442	273
17.9516	238
17.9590	227
17.9664	194
17.9738	181
17.9812	187
17.9886	183
17.9959	168
18.0033	174
18.0107	167
18.0181	152
18.0255	168
18.0329	150
18.0403	150
18.0477	151
18.0551	127
18.0625	137
18.0699	163
18.0773	127
18.0847	128
18.0921	141
18.0995	137
18.1069	110
18.1143	125
18.1217	156
18.1291	148
18.1365	133
18.1439	139
18.1512	132
18.1586	129
18.1660	132
18.1734	133
18.1808	98
18.1882	129
18.1956	119
18.2030	116
18.2104	131
18.2178	132
18.2252	116
18.2326	126
18.2400	142
18.2474	151
18.2548	128
18.2622	131
18.2696	140
18.2770	144
18.2844	143
18.2918	124
18.2992	125
18.3065	133
18.3139	126
18.3213	110
18.3287	147
18.3361	136
18.3435	137
18.3509	157
18.3583	138
18.3657	139
18.3731	158
18.3805	136
18.3879	196
18.3953	178
18.4027	194
18.4101	220
18.4175	208
18.4249	234
18.4323	249
18.4397	240
18.4471	284
18.4545	312
18.4618	329
18.4692	364
18.4766	417
18.4840	478
18.4914	553
18.4988	609
18.5062	711
18.5136	792
18.5210	930
18.5284	1042
18.5358	1113
18.5432	1194
18.5506	1317
18.5580	1283
18.5654	1326
18.5728	1310
18.5802	1338
18.5876	1273
18.5950	1093
18.6024	1113
18.6098	970
18.6171	962
18.6245	948
18.6319	876
18.6393	853
18.6467	810
18.6541	717
18.6615	671
18.6689	574
18.6763	536
18.6837	472
18.6911	414
18.6985	365
18.7059	368
18.7133	281
18.7207	288
18.7281	236
18.7355	244
18.7429	201
18.7503	185
18.7577	186
18.7651	180
18.7724	169
18.7798	153
18.7872	147
18.7946	147
18.8020	149
18.8094	129
18.8168	134
18.8242	127
18.8316	140
18.8390	109
18.8464	141
18.8538	134
18.8612	143
18.8686	136
18.8760	154
18.8834	124
18.8908	127
18.8982	132
18.9056	133
18.9130	136
18.9204	119
18.9278	151
18.9351	124
18.9425	122
18.9499	121
18.9573	122
18.9647	126
18.9721	155
18.9795	133
18.9869	112
18.9943	113
19.0017	125
19.0091	96
19.0165	97
19.0239	109
19.0313	114
19.0387	113
19.0461	132
19.0535	122
19.0609	109
19.0683	117
19.0757	132
19.0831	111
19.0904	98
19.0978	100
19.1052	110
19.1126	112
19.1200	94
19.1274	123
19.1348	119
19.1422	97
19.1496	102
19.1570	93
19.1644	98
19.1718	112
19.1792	112
19.1866	104
19.1940	92
19.2014	112
19.2088	107
19.2162	105
19.2236	72
19.2310	120
19.2384	94
19.2457	99
19.2531	113
19.2605	123
19.2679	112
19.2753	93
19.2827	107
19.2901	110
19.2975	99
19.3049	90
19.3123	101
19.3197	122
19.3271	108
19.3345	113
19.3419	124
19.3493	126
19.3567	124
19.3641	123
19.3715	132
19.3789	136
19.3863	177
19.3937	165
19.4010	186
19.4084	202
19.4158	183
19.4232	209
19.4306	280
19.4380	273
19.4454	358
19.4528	337
19.4602	364
19.4676	362
19.4750	359
19.4824	353
19.4898	320
19.4972	303
19.5046	279
19.5120	274
19.5194	217
19.5268	233
19.5342	178
19.5416	205
19.5490	207
19.5563	151
19.5637	113
19.5711	130
19.5785	129
19.5859	119
19.5933	130
19.6007	126
19.6081	102
19.6155	99
19.6229	108
19.6303	108
19.6377	99
19.6451	83
19.6525	100
19.6599	99
19.6673	83
19.6747	107
19.6821	93
19.6895	96
19.6969	84
19.7043	91
19.7116	122
19.7190	100
19.7264	90
19.7338	96
19.7412	117
19.7486	104
19.7560	94
19.7634	111
19.7708	86
19.7782	108
19.7856	98
19.7930	104
19.8004	105
19.8078	108
19.8152	108
19.8226	103
19.8300	105
19.8374	112
19.8448	108
19.8522	120
19.8596	110
19.8669	113
19.8743	112
19.8817	115
19.8891	97
19.8965	97
19.9039	100
19.9113	112
19.9187	103
19.9261	119
19.9335	101
19.9409	103
19.9483	89
19.9557	107
19.9631	102
19.9705	98
19.9779	97
19.9853	111
19.9927	106
20.0001	94
20.0075	114
20.0149	105
20.0222	107
20.0296	109
20.0370	106
20.0444	121
20.0518	90
20.0592	100
20.0666	100
20.0740	111
20.0814	116
20.0888	115
20.0962	118
20.1036	116
20.1110	111
20.1184	108
20.1258	105
20.1332	128
20.1406	121
20.1480	115
20.1554	113
20.1628	116
20.1702	106
20.1775	132
20.1849	122
20.1923	122
20.1997	123
20.2071	123
20.2145	126
20.2219	129
20.2293	102
20.2367	117
20.2441	122
20.2515	129
20.2589	114
20.2663	129
20.2737	151
20.2811	144
20.2885	131
20.2959	133
20.3033	143
20.3107	164
20.3181	148
20.3255	166
20.3328	172
20.3402	171
20.3476	171
20.3550	198
20.3624	187
20.3698	241
20.3772	227
20.3846	237
20.3920	272
20.3994	291
20.4068	335
20.4142	372
20.4216	399
20.4290	394
20.4364	460
20.4438	505
20.4512	537
20.4586	585
20.4660	681
20.4734	732
20.4808	802
20.4882	901
20.4955	1027
20.5029	1100
20.5103	1124
20.5177	1170
20.5251	1227
20.5325	1192
20.5399	1086
20.5473	1026
20.5547	1045
20.5621	942
20.5695	874
20.5769	799
20.5843	733
20.5917	629
20.5991	625
20.6065	495
20.6139	438
20.6213	395
20.6287	345
20.6361	340
20.6435	275
20.6508	254
20.6582	258
20.6656	253
20.6730	215
20.6804	211
20.6878	210
20.6952	212
20.7026	182
20.7100	187
20.7174	187
20.7248	168
20.7322	194
20.7396	163
20.7470	185
20.7544	166
20.7618	177
20.7692	168
20.7766	137
20.7840	180
20.7914	182
20.7988	172
20.8061	179
20.8135	174
20.8209	166
20.8283	205
20.8357	199
20.8431	188
20.8505	208
20.8579	198
20.8653	203
20.8727	234
20.8801	227
20.8875	254
20.8949	289
20.9023	308
20.9097	404
20.9171	382
20.9245	389
20.9319	384
20.9393	452
20.9467	442
20.9541	454
20.9614	388
20.9688	381
20.9762	383
20.9836	371
20.9910	360
20.9984	384
21.0058	308
21.0132	255
21.0206	291
21.0280	242
21.0354	222
21.0428	180
21.0502	184
21.0576	165
21.0650	193
21.0724	171
21.0798	154
21.0872	158
21.0946	151
21.1020	144
21.1094	141
21.1167	157
21.1241	143
21.1315	164
21.1389	170
21.1463	126
21.1537	146
21.1611	135
21.1685	170
21.1759	156
21.1833	145
21.1907	150
21.1981	162
21.2055	155
21.2129	183
21.2203	178
21.2277	172
21.2351	183
21.2425	182
21.2499	186
21.2573	183
21.2647	165
21.2720	164
21.2794	174
21.2868	186
21.2942	180
21.3016	197
21.3090	189
21.3164	193
21.3238	212
21.3312	170
21.3386	190
21.3460	174
21.3534	197
21.3608	192
21.3682	199
21.3756	233
21.3830	255
21.3904	242
21.3978	259
21.4052	303
21.4126	261
21.4200	283
21.4273	340
21.4347	402
21.4421	407
21.4495	468
21.4569	529
21.4643	588
21.4717	712
21.4791	841
21.4865	996
21.4939	1102
21.5013	1129
21.5087	1340
21.5161	1347
21.5235	1410
21.5309	1340
21.5383	1271
21.5457	1227
21.5531	1157
21.5605	1108
21.5679	1000
21.5753	948
21.5826	866
21.5900	846
21.5974	707
21.6048	612
21.6122	561
21.6196	514
21.6270	488
21.6344	482
21.6418	456
21.6492	450
21.6566	442
21.6640	454
21.6714	455
21.6788	501
21.6862	537
21.6936	561
21.7010	570
21.7084	595
21.7158	555
21.7232	581
21.7306	573
21.7379	609
21.7453	553
21.7527	604
21.7601	589
21.7675	564
21.7749	554
21.7823	531
21.7897	546
21.7971	509
21.8045	545
21.8119	589
21.8193	581
21.8267	602
21.8341	629
21.8415	686
21.8489	667
21.8563	793
21.8637	849
21.8711	991
21.8785	1153
21.8859	1291
21.8932	1427
21.9006	1791
21.9080	2105
21.9154	2494
21.9228	2966
21.9302	3650
21.9376	4267
21.9450	4929
21.9524	5552
21.9598	5934
21.9672	6414
21.9746	6368
21.9820	6355
21.9894	6163
21.9968	5850
22.0042	5472
22.0116	4996
22.0190	4519
22.0264	4325
22.0338	3643
22.0412	3312
22.0485	2785
22.0559	2349
22.0633	1795
22.0707	1588
22.0781	1239
22.0855	1075
22.0929	850
22.1003	728
22.1077	624
22.1151	588
22.1225	574
22.1299	457
22.1373	456
22.1447	406
22.1521	428
22.1595	367
22.1669	348
22.1743	337
22.1817	307
22.1891	329
22.1965	315
22.2039	294
22.2112	272
22.2186	293
22.2260	236
22.2334	270
22.2408	259
22.2482	272
22.2556	239
22.2630	254
22.2704	234
22.2778	214
22.2852	211
22.2926	220
22.3000	186
22.3074	189
22.3148	219
22.3222	202
22.3296	203
22.3370	179
22.3444	175
22.3518	174
22.3592	175
22.3665	181
22.3739	197
22.3813	174
22.3887	191
22.3961	169
22.4035	189
22.4109	149
22.4183	160
22.4257	166
22.4331	194
22.4405	161
22.4479	166
22.4553	175
22.4627	166
22.4701	161
22.4775	153
22.4849	158
22.4923	158
22.4997	138
22.5071	161
22.5145	160
22.5218	153
22.5292	163
22.5366	154
22.5440	166
22.5514	186
22.5588	150
22.5662	163
22.5736	151
22.5810	175
22.5884	160
22.5958	149
22.6032	180
22.6106	175
22.6180	180
22.6254	186
22.6328	205
22.6402	191
22.6476	211
22.6550	210
22.6624	232
22.6698	225
22.6771	283
22.6845	261
22.6919	280
22.6993	341
22.7067	392
22.7141	364
22.7215	441
22.7289	451
22.7363	552
22.7437	541
22.7511	518
22.7585	517
22.7659	556
22.7733	468
22.7807	505
22.7881	449
22.7955	412
22.8029	374
22.8103	413
22.8177	328
22.8251	342
22.8324	278
22.8398	262
22.8472	227
22.8546	232
22.8620	177
22.8694	217
22.8768	179
22.8842	187
22.8916	183
22.8990	162
22.9064	170
22.9138	145
22.9212	175
22.9286	169
22.9360	149
22.9434	151
22.9508	130
22.9582	122
22.9656	135
22.9730	153
22.9804	161
22.9877	142
22.9951	128
23.0025	146
23.0099	152
23.0173	127
23.0247	123
23.0321	136
23.0395	134
23.0469	123
23.0543	126
23.0617	144
23.0691	134
23.0765	138
23.0839	147
23.0913	138
23.0987	158
23.1061	131
23.1135	146
23.1209	129
23.1283	139
23.1357	137
23.1430	149
23.1504	134
23.1578	144
23.1652	140
23.1726	136
23.1800	128
23.1874	127
23.1948	138
23.2022	121
23.2096	115
23.2170	159
23.2244	131
23.2318	134
23.2392	127
23.2466	125
23.2540	131
23.2614	116
23.2688	115
23.2762	125
23.2836	139
23.2910	143
23.2983	150
23.3057	142
23.3131	156
23.3205	140
23.3279	141
23.3353	162
23.3427	143
23.3501	151
23.3575	151
23.3649	148
23.3723	165
23.3797	166
23.3871	160
23.3945	191
23.4019	191
23.4093	172
23.4167	226
23.4241	232
23.4315	266
23.4389	277
23.4463	273
23.4536	330
23.4610	311
23.4684	408
23.4758	422
23.4832	383
23.4906	375
23.4980	395
23.5054	357
23.5128	343
23.5202	328
23.5276	296
23.5350	309
23.5424	273
23.5498	269
23.5572	252
23.5646	246
23.5720	226
23.5794	215
23.5868	200
23.5942	175
23.6016	179
23.6089	194
23.6163	136
23.6237	158
23.6311	148
23.6385	147
23.6459	152
23.6533	143
23.6607	156
23.6681	159
23.6755	154
23.6829	143
23.6903	162
23.6977	137
23.7051	156
23.7125	141
23.7199	138
23.7273	157
23.7347	157
23.7421	151
23.7495	157
23.7569	150
23.7643	179
23.7716	181
23.7790	152
23.7864	165
23.7938	186
23.8012	177
23.8086	197
23.8160	201
23.8234	206
23.8308	208
23.8382	220
23.8456	206
23.8530	237
23.8604	244
23.8678	272
23.8752	302
23.8826	301
23.8900	316
23.8974	335
23.9048	409
23.9122	418
23.9196	464
23.9269	493
23.9343	581
23.9417	625
23.9491	707
23.9565	730
23.9639	782
23.9713	876
23.9787	901
23.9861	939
23.9935	911
24.0009	861
24.0083	877
24.0157	815
24.0231	809
24.0305	753
24.0379	749
24.0453	680
24.0527	680
24.0601	649
24.0675	541
24.0749	498
24.0822	486
24.0896	393
24.0970	398
24.1044	321
24.1118	273
24.1192	257
24.1266	248
24.1340	251
24.1414	265
24.1488	241
24.1562	218
24.1636	240
24.1710	210
24.1784	188
24.1858	203
24.1932	222
24.2006	181
24.2080	197
24.2154	216
24.2228	232
24.2302	208
24.2375	234
24.2449	273
24.2523	264
24.2597	235
24.2671	292
24.2745	326
24.2819	305
24.2893	336
24.2967	358
24.3041	385
24.3115	361
24.3189	422
24.3263	414
24.3337	496
24.3411	518
24.3485	551
24.3559	546
24.3633	612
24.3707	640
24.3781	685
24.3855	670
24.3928	647
24.4002	605
24.4076	615
24.4150	597
24.4224	525
24.4298	476
24.4372	483
24.4446	465
24.4520	437
24.4594	440
24.4668	388
24.4742	335
24.4816	282
24.4890	295
24.4964	269
24.5038	224
24.5112	237
24.5186	209
24.5260	174
24.5334	195
24.5408	204
24.5481	179
24.5555	194
24.5629	171
24.5703	158
24.5777	167
24.5851	153
24.5925	157
24.5999	137
24.6073	139
24.6147	154
24.6221	169
24.6295	159
24.6369	176
24.6443	126
24.6517	141
24.6591	164
24.6665	156
24.6739	186
24.6813	161
24.6887	157
24.6961	167
24.7034	162
24.7108	169
24.7182	192
24.7256	183
24.7330	198
24.7404	204
24.7478	201
24.7552	230
24.7626	237
24.7700	261
24.7774	263
24.7848	273
24.7922	300
24.7996	262
24.8070	283
24.8144	250
24.8218	263
24.8292	250
24.8366	222
24.8440	267
24.8514	238
24.8587	226
24.8661	226
24.8735	219
24.8809	223
24.8883	191
24.8957	172
24.9031	167
24.9105	193
24.9179	169
24.9253	143
24.9327	164
24.9401	158
24.9475	148
24.9549	167
24.9623	160
24.9697	162
24.9771	160
24.9845	168
24.9919	159
24.9993	128
25.0067	150
25.0140	156
25.0214	140
25.0288	189
25.0362	136
25.0436	137
25.0510	181
25.0584	161
25.0658	124
25.0732	126
25.0806	181
25.0880	155
25.0954	144
25.1028	134
25.1102	141
25.1176	147
25.1250	167
25.1324	151
25.1398	145
25.1472	175
25.1546	151
25.1620	149
25.1693	147
25.1767	130
25.1841	151
25.1915	156
25.1989	160
25.2063	169
25.2137	133
25.2211	181
25.2285	155
25.2359	132
25.2433	184
25.2507	147
25.2581	151
25.2655	149
25.2729	162
25.2803	185
25.2877	180
25.2951	180
25.3025	163
25.3099	182
25.3173	166
25.3247	196
25.3320	200
25.3394	192
25.3468	242
25.3542	236
25.3616	236
25.3690	261
25.3764	249
25.3838	296
25.3912	329
25.3986	319
25.4060	363
25.4134	400
25.4208	462
25.4282	549
25.4356	601
25.4430	674
25.4504	740
25.4578	819
25.4652	963
25.4726	1050
25.4800	1191
25.4873	1242
25.4947	1350
25.5021	1283
25.5095	1260
25.5169	1156
25.5243	1149
25.5317	1064
25.5391	1051
25.5465	1032
25.5539	995
25.5613	997
25.5687	939
25.5761	938
25.5835	848
25.5909	848
25.5983	861
25.6057	879
25.6131	892
25.6205	798
25.6279	818
25.6353	852
25.6426	781
25.6500	695
25.6574	713
25.6648	692
25.6722	680
25.6796	653
25.6870	619
25.6944	529
25.7018	521
25.7092	502
25.7166	492
25.7240	417
25.7314	404
25.7388	352
25.7462	336
25.7536	327
25.7610	327
25.7684	332
25.7758	309
25.7832	309
25.7906	331
25.7979	326
25.8053	349
25.8127	383
25.8201	329
25.8275	347
25.8349	394
25.8423	392
25.8497	406
25.8571	428
25.8645	468
25.8719	400
25.8793	377
25.8867	363
25.8941	358
25.9015	359
25.9089	387
25.9163	376
25.9237	322
25.9311	314
25.9385	291
25.9459	298
25.9532	262
25.9606	246
25.9680	265
25.9754	254
25.9828	256
25.9902	198
25.9976	225
26.0050	197
26.0124	199
26.0198	190
26.0272	189
26.0346	180
26.0420	172
26.0494	175
26.0568	177
26.0642	168
26.0716	169
26.0790	194
26.0864	208
26.0938	212
26.1012	182
26.1085	200
26.1159	157
26.1233	170
26.1307	169
26.1381	182
26.1455	173
26.1529	193
26.1603	181
26.1677	174
26.1751	183
26.1825	202
26.1899	188
26.1973	160
26.2047	203
26.2121	221
26.2195	227
26.2269	209
26.2343	213
26.2417	240
26.2491	225
26.2565	230
26.2638	225
26.2712	228
26.2786	251
26.2860	236
26.2934	301
26.3008	263
26.3082	298
26.3156	289
26.3230	323
26.3304	294
26.3378	384
26.3452	330
26.3526	402
26.3600	399
26.3674	411
26.3748	442
26.3822	493
26.3896	511
26.3970	536
26.4044	576
26.4118	609
26.4191	633
26.4265	708
26.4339	809
26.4413	809
26.4487	920
26.4561	970
26.4635	1057
26.4709	1210
26.4783	1380
26.4857	1451
26.4931	1591
26.5005	1709
26.5079	1821
26.5153	1964
26.5227	1997
26.5301	2122
26.5375	2081
26.5449	2068
26.5523	2032
26.5597	1960
26.5671	1776
26.5744	1742
26.5818	1619
26.5892	1471
26.5966	1398
26.6040	1424
26.6114	1251
26.6188	1134
26.6262	1059
26.6336	835
26.6410	854
26.6484	678
26.6558	611
26.6632	591
26.6706	511
26.6780	439
26.6854	422
26.6928	399
26.7002	381
26.7076	384
26.7150	338
26.7224	315
26.7297	322
26.7371	330
26.7445	289
26.7519	289
26.7593	264
26.7667	245
26.7741	272
26.7815	228
26.7889	231
26.7963	221
26.8037	210
26.8111	204
26.8185	223
26.8259	215
26.8333	205
26.8407	204
26.8481	205
26.8555	191
26.8629	225
26.8703	197
26.8777	184
26.8850	179
26.8924	182
26.8998	197
26.9072	205
26.9146	170
26.9220	204
26.9294	176
26.9368	175
26.9442	184
26.9516	164
26.9590	171
26.9664	172
26.9738	159
26.9812	157
26.9886	165
26.9960	168
27.0034	162
27.0108	163
27.0182	187
27.0256	151
27.0330	164
27.0404	157
27.0477	166
27.0551	183
27.0625	158
27.0699	144
27.0773	187
27.0847	184
27.0921	152
27.0995	151
27.1069	151
27.1143	165
27.1217	167
27.1291	167
27.1365	144
27.1439	177
27.1513	136
27.1587	137
27.1661	154
27.1735	166
27.1809	149
27.1883	163
27.1957	183
27.2030	182
27.2104	163
27.2178	160
27.2252	151
27.2326	179
27.2400	187
27.2474	167
27.2548	173
27.2622	197
27.2696	206
27.2770	190
27.2844	199
27.2918	241
27.2992	180
27.3066	214
27.3140	211
27.3214	207
27.3288	205
27.3362	233
27.3436	278
27.3510	276
27.3583	295
27.3657	285
27.3731	335
27.3805	376
27.3879	385
27.3953	397
27.4027	494
27.4101	516
27.4175	633
27.4249	643
27.4323	747
27.4397	910
27.4471	943
27.4545	1076
27.4619	1114
27.4693	1184
27.4767	1278
27.4841	1229
27.4915	1281
27.4989	1201
27.5063	1095
27.5136	1065
27.5210	975
27.5284	925
27.5358	933
27.5432	920
27.5506	850
27.5580	740
27.5654	721
27.5728	633
27.5802	556
27.5876	525
27.5950	495
27.6024	399
27.6098	375
27.6172	319
27.6246	306
27.6320	300
27.6394	263
27.6468	270
27.6542	228
27.6616	246
27.6689	210
27.6763	215
27.6837	227
27.6911	208
27.6985	230
27.7059	205
27.7133	201
27.7207	179
27.7281	204
27.7355	170
27.7429	194
27.7503	140
27.7577	161
27.7651	169
27.7725	165
27.7799	138
27.7873	163
27.7947	188
27.8021	162
27.8095	159
27.8169	147
27.8242	153
27.8316	148
27.8390	142
27.8464	168
27.8538	133
27.8612	169
27.8686	151
27.8760	138
27.8834	146
27.8908	134
27.8982	135
27.9056	135
27.9130	139
27.9204	142
27.9278	134
27.9352	115
27.9426	165
27.9500	126
27.9574	153
27.9648	126
27.9722	157
27.9795	148
27.9869	133
27.9943	132
28.0017	138
28.0091	149
28.0165	147
28.0239	185
28.0313	130
28.0387	134
28.0461	162
28.0535	141
28.0609	142
28.0683	137
28.0757	148
28.0831	143
28.0905	158
28.0979	133
28.1053	130
28.1127	148
28.1201	138
28.1275	146
28.1348	140
28.1422	132
28.1496	161
28.1570	127
28.1644	153
28.1718	145
28.1792	148
28.1866	168
28.1940	157
28.2014	153
28.2088	139
28.2162	141
28.2236	160
28.2310	154
28.2384	170
28.2458	157
28.2532	155
28.2606	166
28.2680	209
28.2754	188
28.2828	184
28.2901	199
28.2975	188
28.3049	224
28.3123	245
28.3197	244
28.3271	257
28.3345	263
28.3419	287
28.3493	256
28.3567	324
28.3641	327
28.3715	346
28.3789	356
28.3863	407
28.3937	433
28.4011	485
28.4085	500
28.4159	570
28.4233	574
28.4307	667
28.4381	700
28.4454	663
28.4528	715
28.4602	686
28.4676	701
28.4750	678
28.4824	600
28.4898	639
28.4972	576
28.5046	539
28.5120	571
28.5194	520
28.5268	491
28.5342	448
28.5416	418
28.5490	388
28.5564	375
28.5638	315
28.5712	308
28.5786	269
28.5860	264
28.5934	242
28.6008	220
28.6081	195
28.6155	215
28.6229	204
28.6303	166
28.6377	173
28.6451	171
28.6525	172
28.6599	142
28.6673	187
28.6747	139
28.6821	152
28.6895	150
28.6969	153
28.7043	154
28.7117	163
28.7191	161
28.7265	147
28.7339	164
28.7413	158
28.7487	160
28.7561	146
28.7634	178
28.7708	138
28.7782	118
28.7856	151
28.7930	156
28.8004	155
28.8078	171
28.8152	172
28.8226	169
28.8300	146
28.8374	163
28.8448	165
28.8522	175
28.8596	166
28.8670	158
28.8744	183
28.8818	204
28.8892	192
28.8966	212
28.9040	214
28.9114	210
28.9187	205
28.9261	196
28.9335	215
28.9409	208
28.9483	263
28.9557	251
28.9631	285
28.9705	309
28.9779	303
28.9853	350
28.9927	378
29.0001	391
29.0075	350
29.0149	384
29.0223	361
29.0297	329
29.0371	364
29.0445	322
29.0519	345
29.0593	295
29.0667	296
29.0740	289
29.0814	273
29.0888	242
29.0962	238
29.1036	227
29.1110	231
29.1184	210
29.1258	200
29.1332	172
29.1406	191
29.1480	169
29.1554	155
29.1628	130
29.1702	141
29.1776	136
29.1850	141
29.1924	148
29.1998	147
29.2072	121
29.2146	139
29.2220	127
29.2293	122
29.2367	116
29.2441	107
29.2515	128
29.2589	138
29.2663	86
29.2737	119
29.2811	109
29.2885	125
29.2959	104
29.3033	117
29.3107	126
29.3181	103
29.3255	108
29.3329	88
29.3403	108
29.3477	121
29.3551	112
29.3625	104
29.3699	99
29.3773	131
29.3846	116
29.3920	108
29.3994	116
29.4068	111
29.4142	133
29.4216	106
29.4290	114
29.4364	109
29.4438	128
29.4512	86
29.4586	108
29.4660	98
29.4734	118
29.4808	97
29.4882	126
29.4956	93
29.5030	104
29.5104	107
29.5178	104
29.5252	113
29.5326	140
29.5399	109
29.5473	112
29.5547	108
29.5621	127
29.5695	126
29.5769	114
29.5843	139
29.5917	107
29.5991	129
29.6065	105
29.6139	114
29.6213	115
29.6287	107
29.6361	112
29.6435	103
29.6509	105
29.6583	112
29.6657	116
29.6731	88
29.6805	115
29.6879	105
29.6952	84
29.7026	98
29.7100	142
29.7174	85
29.7248	102
29.7322	104
29.7396	105
29.7470	105
29.7544	97
29.7618	93
29.7692	104
29.7766	94
29.7840	105
29.7914	110
29.7988	107
29.8062	90
29.8136	95
29.8210	103
29.8284	104
29.8358	107
29.8432	92
29.8505	103
29.8579	104
29.8653	107
29.8727	95
29.8801	107
29.8875	103
29.8949	96
29.9023	104
29.9097	96
29.9171	92
29.9245	99
29.9319	113
29.9393	96
29.9467	105
29.9541	127
29.9615	100
29.9689	99
29.9763	110
29.9837	113
29.9911	117
29.9985	86
30.0058	103
30.0132	80
30.0206	88
30.0280	106
30.0354	115
30.0428	82
30.0502	101
30.0576	101
30.0650	105
30.0724	107
30.0798	112
30.0872	113
30.0946	95
30.1020	114
30.1094	91
30.1168	89
30.1242	115
30.1316	107
30.1390	87
30.1464	88
30.1538	113
30.1612	103
30.1685	112
30.1759	106
30.1833	112
30.1907	100
30.1981	95
30.2055	103
30.2129	104
30.2203	101
30.2277	112
30.2351	94
30.2425	88
30.2499	79
30.2573	95
30.2647	104
30.2721	105
30.2795	91
30.2869	104
30.2943	90
30.3017	98
30.3091	92
30.3165	96
30.3238	73
30.3312	89
30.3386	103
30.3460	98
30.3534	90
30.3608	106
30.3682	97
30.3756	121
30.3830	96
30.3904	102
30.3978	123
30.4052	138
30.4126	125
30.4200	91
30.4274	113
30.4348	100
30.4422	98
30.4496	110
30.4570	109
30.4644	131
30.4718	118
30.4791	141
30.4865	139
30.4939	144
30.5013	160
30.5087	183
30.5161	144
30.5235	177
30.5309	173
30.5383	143
30.5457	160
30.5531	158
30.5605	161
30.5679	150
30.5753	134
30.5827	173
30.5901	132
30.5975	141
30.6049	187
30.6123	139
30.6197	161
30.6271	131
30.6344	142
30.6418	148
30.6492	130
30.6566	127
30.6640	144
30.6714	114
30.6788	141
30.6862	138
30.6936	132
30.7010	106
30.7084	116
30.7158	131
30.7232	110
30.7306	95
30.7380	111
30.7454	107
30.7528	116
30.7602	97
30.7676	97
30.7750	109
30.7824	85
30.7897	103
30.7971	113
30.8045	100
30.8119	119
30.8193	97
30.8267	102
30.8341	107
30.8415	106
30.8489	105
30.8563	96
30.8637	114
30.8711	110
30.8785	97
30.8859	83
30.8933	115
30.9007	96
30.9081	91
30.9155	103
30.9229	79
30.9303	111
30.9377	88
30.9450	91
30.9524	86
30.9598	94
30.9672	89
30.9746	85
30.9820	75
30.9894	101
30.9968	92
31.0042	102
31.0116	86
31.0190	107
31.0264	107
31.0338	92
31.0412	98
31.0486	102
31.0560	89
31.0634	102
31.0708	85
31.0782	98
31.0856	105
31.0930	92
31.1003	107
31.1077	111
31.1151	94
31.1225	97
31.1299	96
31.1373	100
31.1447	103
31.1521	95
31.1595	99
31.1669	87
31.1743	93
31.1817	109
31.1891	115
31.1965	95
31.2039	115
31.2113	124
31.2187	117
31.2261	100
31.2335	112
31.2409	110
31.2483	99
31.2556	129
31.2630	118
31.2704	110
31.2778	94
31.2852	123
31.2926	129
31.3000	154
31.3074	131
31.3148	134
31.3222	147
31.3296	163
31.3370	154
31.3444	148
31.3518	165
31.3592	163
31.3666	189
31.3740	174
31.3814	219
31.3888	225
31.3962	217
31.4036	223
31.4109	236
31.4183	250
31.4257	250
31.4331	241
31.4405	241
31.4479	221
31.4553	233
31.4627	243
31.4701	215
31.4775	241
31.4849	235
31.4923	233
31.4997	219
31.5071	201
31.5145	213
31.5219	205
31.5293	211
31.5367	168
31.5441	180
31.5515	197
31.5589	204
31.5662	182
31.5736	208
31.5810	170
31.5884	192
31.5958	169
31.6032	164
31.6106	176
31.6180	169
31.6254	165
31.6328	155
31.6402	162
31.6476	156
31.6550	154
31.6624	150
31.6698	128
31.6772	148
31.6846	152
31.6920	155
31.6994	141
31.7068	120
31.7142	140
31.7215	130
31.7289	114
31.7363	106
31.7437	130
31.7511	117
31.7585	111
31.7659	114
31.7733	115
31.7807	120
31.7881	109
31.7955	100
31.8029	133
31.8103	119
31.8177	108
31.8251	113
31.8325	139
31.8399	126
31.8473	121
31.8547	130
31.8621	137
31.8695	139
31.8769	135
31.8842	159
31.8916	143
31.8990	161
31.9064	158
31.9138	159
31.9212	150
31.9286	147
31.9360	165
31.9434	152
31.9508	155
31.9582	150
31.9656	147
31.9730	130
31.9804	134
31.9878	164
31.9952	147
32.0026	130
32.0100	113
32.0174	135
32.0248	142
32.0322	119
32.0395	127
32.0469	127
32.0543	120
32.0617	128
32.0691	103
32.0765	112
32.0839	123
32.0913	105
32.0987	119
32.1061	103
32.1135	101
32.1209	104
32.1283	103
32.1357	102
32.1431	100
32.1505	107
32.1579	101
32.1653	93
32.1727	99
32.1801	104
32.1875	79
32.1948	96
32.2022	104
32.2096	82
32.2170	94
32.2244	97
32.2318	97
32.2392	98
32.2466	87
32.2540	115
32.2614	72
32.2688	91
32.2762	97
32.2836	104
32.2910	80
32.2984	78
32.3058	90
32.3132	98
32.3206	68
32.3280	81
32.3354	71
32.3428	81
32.3501	106
32.3575	74
32.3649	93
32.3723	92
32.3797	96
32.3871	88
32.3945	86
32.4019	87
32.4093	89
32.4167	93
32.4241	82
32.4315	95
32.4389	85
32.4463	100
32.4537	72
32.4611	83
32.4685	89
32.4759	99
32.4833	85
32.4907	76
32.4981	80
32.5054	93
32.5128	97
32.5202	86
32.5276	82
32.5350	90
32.5424	102
32.5498	98
32.5572	90
32.5646	93
32.5720	83
32.5794	80
32.5868	87
32.5942	75
32.6016	89
32.6090	64
32.6164	87
32.6238	99
32.6312	96
32.6386	82
32.6460	76
32.6534	104
32.6607	82
32.6681	93
32.6755	96
32.6829	79
32.6903	82
32.6977	94
32.7051	82
32.7125	81
32.7199	104
32.7273	83
32.7347	79
32.7421	94
32.7495	107
32.7569	93
32.7643	92
32.7717	94
32.7791	100
32.7865	88
32.7939	99
32.8013	99
32.8087	80
32.8160	92
32.8234	99
32.8308	94
32.8382	94
32.8456	108
32.8530	83
32.8604	86
32.8678	104
32.8752	121
32.8826	106
32.8900	103
32.8974	109
32.9048	122
32.9122	104
32.9196	113
32.9270	96
32.9344	99
32.9418	109
32.9492	108
32.9566	96
32.9640	90
32.9713	99
32.9787	100
32.9861	108
32.9935	92
33.0009	99
33.0083	86
33.0157	96
33.0231	87
33.0305	95
33.0379	79
33.0453	89
33.0527	89
33.0601	105
33.0675	110
33.0749	96
33.0823	93
33.0897	95
33.0971	88
33.1045	76
33.1119	97
33.1193	95
33.1266	96
33.1340	86
33.1414	101
33.1488	114
33.1562	102
33.1636	101
33.1710	93
33.1784	111
33.1858	114
33.1932	98
33.2006	92
33.2080	100
33.2154	105
33.2228	112
33.2302	107
33.2376	106
33.2450	101
33.2524	103
33.2598	117
33.2672	114
33.2746	125
33.2819	116
33.2893	130
33.2967	125
33.3041	129
33.3115	145
33.3189	141
33.3263	151
33.3337	159
33.3411	156
33.3485	167
33.3559	170
33.3633	158
33.3707	159
33.3781	160
33.3855	176
33.3929	176
33.4003	165
33.4077	196
33.4151	194
33.4225	197
33.4299	198
33.4373	214
33.4446	158
33.4520	207
33.4594	243
33.4668	214
33.4742	228
33.4816	269
33.4890	254
33.4964	303
33.5038	315
33.5112	305
33.5186	355
33.5260	365
33.5334	370
33.5408	397
33.5482	403
33.5556	451
33.5630	426
33.5704	434
33.5778	438
33.5852	410
33.5926	415
33.5999	404
33.6073	433
33.6147	404
33.6221	382
33.6295	394
33.6369	363
33.6443	317
33.6517	323
33.6591	326
33.6665	291
33.6739	248
33.6813	261
33.6887	243
33.6961	256
33.7035	258
33.7109	223
33.7183	210
33.7257	214
33.7331	182
33.7405	194
33.7479	163
33.7552	158
33.7626	148
33.7700	144
33.7774	120
33.7848	114
33.7922	125
33.7996	146
33.8070	139
33.8144	136
33.8218	115
33.8292	119
33.8366	129
33.8440	132
33.8514	131
33.8588	138
33.8662	109
33.8736	147
33.8810	132
33.8884	122
33.8958	106
33.9032	127
33.9105	126
33.9179	121
33.9253	153
33.9327	155
33.9401	135
33.9475	124
33.9549	130
33.9623	126
33.9697	136
33.9771	134
33.9845	143
33.9919	125
33.9993	127
34.0067	128
34.0141	138
34.0215	139
34.0289	133
34.0363	136
34.0437	127
34.0511	126
34.0585	134
34.0658	144
34.0732	131
34.0806	121
34.0880	107
34.0954	129
34.1028	135
34.1102	144
34.1176	136
34.1250	138
34.1324	115
34.1398	112
34.1472	122
34.1546	133
34.1620	116
34.1694	126
34.1768	121
34.1842	102
34.1916	104
34.1990	138
34.2064	106
34.2138	123
34.2211	107
34.2285	108
34.2359	98
34.2433	95
34.2507	86
34.2581	87
34.2655	95
34.2729	86
34.2803	79
34.2877	101
34.2951	103
34.3025	95
34.3099	85
34.3173	102
34.3247	91
34.3321	90
34.3395	88
34.3469	96
34.3543	93
34.3617	79
34.3691	81
34.3764	88
34.3838	89
34.3912	105
34.3986	88
34.4060	88
34.4134	86
34.4208	120
34.4282	76
34.4356	84
34.4430	90
34.4504	93
34.4578	88
34.4652	94
34.4726	114
34.4800	80
34.4874	87
34.4948	73
34.5022	86
34.5096	80
34.5170	108
34.5244	96
34.5317	98
34.5391	98
34.5465	98
34.5539	89
34.5613	69
34.5687	106
34.5761	93
34.5835	81
34.5909	87
34.5983	77
34.6057	81
34.6131	82
34.6205	76
34.6279	92
34.6353	94
34.6427	95
34.6501	90
34.6575	84
34.6649	98
34.6723	91
34.6797	82
34.6870	104
34.6944	81
34.7018	105
34.7092	71
34.7166	72
34.7240	94
34.7314	79
34.7388	98
34.7462	72
34.7536	98
34.7610	90
34.7684	94
34.7758	91
34.7832	85
34.7906	88
34.7980	83
34.8054	80
34.8128	95
34.8202	74
34.8276	81
34.8350	84
34.8423	93
34.8497	81
34.8571	91
34.8645	89
34.8719	85
34.8793	87
34.8867	96
34.8941	94
34.9015	105
34.9089	88
34.9163	88
34.9237	92
34.9311	96
34.9385	82
34.9459	98
34.9533	97
34.9607	94
34.9681	100
34.9755	107
34.9829	100
34.9903	123
34.9977	118
35.0050	101
35.0124	124
35.0198	107
35.0272	107
35.0346	110
35.0420	123
35.0494	113
35.0568	112
35.0642	114
35.0716	126
35.0790	111
35.0864	114
35.0938	104
35.1012	124
35.1086	130
35.1160	124
35.1234	141
35.1308	139
35.1382	102
35.1456	116
35.1530	128
35.1603	152
35.1677	125
35.1751	115
35.1825	112
35.1899	141
35.1973	121
35.2047	144
35.2121	118
35.2195	130
35.2269	152
35.2343	110
35.2417	125
35.2491	95
35.2565	116
35.2639	123
35.2713	135
35.2787	125
35.2861	113
35.2935	124
35.3009	109
35.3083	120
35.3156	140
35.3230	97
35.3304	107
35.3378	99
35.3452	90
35.3526	91
35.3600	102
35.3674	111
35.3748	111
35.3822	77
35.3896	106
35.3970	110
35.4044	106
35.4118	113
35.4192	101
35.4266	106
35.4340	94
35.4414	109
35.4488	94
35.4562	112
35.4636	110
35.4709	125
35.4783	114
35.4857	123
35.4931	111
35.5005	126
35.5079	102
35.5153	132
35.5227	110
35.5301	127
35.5375	101
35.5449	113
35.5523	97
35.5597	108
35.5671	101
35.5745	121
35.5819	128
35.5893	106
35.5967	114
35.6041	101
35.6115	141
35.6189	93
35.6262	92
35.6336	94
35.6410	99
35.6484	103
35.6558	86
35.6632	113
35.6706	88
35.6780	93
35.6854	92
35.6928	85
35.7002	99
35.7076	91
35.7150	84
35.7224	76
35.7298	103
35.7372	97
35.7446	93
35.7520	76
35.7594	92
35.7668	90
35.7742	90
35.7815	98
35.7889	71
35.7963	86
35.8037	89
35.8111	104
35.8185	102
35.8259	85
35.8333	100
35.8407	101
35.8481	107
35.8555	83
35.8629	97
35.8703	106
35.8777	86
35.8851	97
35.8925	108
35.8999	103
35.9073	115
35.9147	124
35.9221	133
35.9295	127
35.9368	125
35.9442	92
35.9516	130
35.9590	104
35.9664	132
35.9738	131
35.9812	139
35.9886	134
35.9960	150
36.0034	192
36.0108	165
36.0182	157
36.0256	216
36.0330	222
36.0404	206
36.0478	214
36.0552	252
36.0626	267
36.0700	260
36.0774	229
36.0848	228
36.0921	253
36.0995	232
36.1069	237
36.1143	216
36.1217	238
36.1291	228
36.1365	248
36.1439	228
36.1513	228
36.1587	228
36.1661	268
36.1735	219
36.1809	228
36.1883	249
36.1957	208
36.2031	245
36.2105	197
36.2179	213
36.2253	187
36.2327	159
36.2401	178
36.2474	189
36.2548	163
36.2622	168
36.2696	175
36.2770	188
36.2844	183
36.2918	170
36.2992	189
36.3066	192
36.3140	176
36.3214	179
36.3288	189
36.3362	179
36.3436	173
36.3510	191
36.3584	164
36.3658	162
36.3732	171
36.3806	170
36.3880	166
36.3954	155
36.4027	137
36.4101	163
36.4175	150
36.4249	159
36.4323	155
36.4397	126
36.4471	129
36.4545	134
36.4619	135
36.4693	119
36.4767	119
36.4841	107
36.4915	123
36.4989	131
36.5063	101
36.5137	111
36.5211	97
36.5285	127
36.5359	104
36.5433	108
36.5507	99
36.5580	83
36.5654	107
36.5728	100
36.5802	105
36.5876	100
36.5950	74
36.6024	81
36.6098	91
36.6172	80
36.6246	95
36.6320	95
36.6394	86
36.6468	89
36.6542	85
36.6616	87
36.6690	115
36.6764	80
36.6838	96
36.6912	92
36.6986	98
36.7060	92
36.7134	75
36.7207	86
36.7281	93
36.7355	98
36.7429	77
36.7503	96
36.7577	92
36.7651	95
36.7725	84
36.7799	79
36.7873	92
36.7947	91
36.8021	84
36.8095	85
36.8169	88
36.8243	70
36.8317	80
36.8391	72
36.8465	90
36.8539	95
36.8613	75
36.8687	93
36.8760	96
36.8834	72
36.8908	96
36.8982	87
36.9056	83
36.9130	87
36.9204	77
36.9278	86
36.9352	91
36.9426	72
36.9500	82
36.9574	87
36.9648	76
36.9722	71
36.9796	108
36.9870	116
36.9944	99
37.0018	108
37.0092	102
37.0166	96
37.0240	96
37.0313	86
37.0387	76
37.0461	101
37.0535	98
37.0609	89
37.0683	91
37.0757	97
37.0831	113
37.0905	99
37.0979	102
37.1053	105
37.1127	116
37.1201	99
37.1275	105
37.1349	132
37.1423	113
37.1497	104
37.1571	143
37.1645	124
37.1719	139
37.1793	116
37.1866	140
37.1940	119
37.2014	123
37.2088	131
37.2162	119
37.2236	111
37.2310	117
37.2384	124
37.2458	109
37.2532	136
37.2606	114
37.2680	114
37.2754	117
37.2828	107
37.2902	109
37.2976	91
37.3050	100
37.3124	100
37.3198	109
37.3272	96
37.3346	104
37.3419	102
37.3493	111
37.3567	87
37.3641	96
37.3715	101
37.3789	89
37.3863	115
37.3937	114
37.4011	91
37.4085	80
37.4159	111
37.4233	107
37.4307	99
37.4381	75
37.4455	118
37.4529	103
37.4603	97
37.4677	103
37.4751	100
37.4825	100
37.4899	111
37.4972	114
37.5046	99
37.5120	97
37.5194	113
37.5268	111
37.5342	115
37.5416	101
37.5490	113
37.5564	128
37.5638	122
37.5712	134
37.5786	140
37.5860	127
37.5934	132
37.6008	155
37.6082	157
37.6156	146
37.6230	167
37.6304	161
37.6378	161
37.6452	188
37.6525	191
37.6599	174
37.6673	204
37.6747	186
37.6821	161
37.6895	231
37.6969	205
37.7043	209
37.7117	187
37.7191	201
37.7265	195
37.7339	201
37.7413	204
37.7487	175
37.7561	173
37.7635	195
37.7709	172
37.7783	185
37.7857	185
37.7931	171
37.8005	162
37.8078	164
37.8152	164
37.8226	155
37.8300	133
37.8374	149
37.8448	134
37.8522	119
37.8596	122
37.8670	121
37.8744	109
37.8818	119
37.8892	107
37.8966	114
37.9040	113
37.9114	107
37.9188	125
37.9262	111
37.9336	109
37.9410	105
37.9484	106
37.9558	99
37.9631	107
37.9705	110
37.9779	85
37.9853	102
37.9927	89
38.0001	103
38.0075	81
38.0149	96
38.0223	85
38.0297	99
38.0371	85
38.0445	95
38.0519	107
38.0593	93
38.0667	92
38.0741	87
38.0815	116
38.0889	105
38.0963	104
38.1037	94
38.1111	114
38.1184	118
38.1258	101
38.1332	107
38.1406	77
38.1480	99
38.1554	104
38.1628	112
38.1702	111
38.1776	102
38.1850	93
38.1924	92
38.1998	97
38.2072	99
38.2146	108
38.2220	114
38.2294	108
38.2368	103
38.2442	124
38.2516	105
38.2590	125
38.2664	134
38.2738	118
38.2811	127
38.2885	137
38.2959	107
38.3033	136
38.3107	135
38.3181	116
38.3255	106
38.3329	133
38.3403	122
38.3477	145
38.3551	152
38.3625	154
38.3699	121
38.3773	137
38.3847	128
38.3921	139
38.3995	126
38.4069	125
38.4143	112
38.4217	133
38.4291	113
38.4364	136
38.4438	144
38.4512	138
38.4586	134
38.4660	122
38.4734	135
38.4808	141
38.4882	142
38.4956	170
38.5030	161
38.5104	148
38.5178	143
38.5252	124
38.5326	121
38.5400	129
38.5474	119
38.5548	97
38.5622	117
38.5696	109
38.5770	112
38.5844	112
38.5917	121
38.5991	113
38.6065	112
38.6139	111
38.6213	98
38.6287	118
38.6361	87
38.6435	98
38.6509	95
38.6583	91
38.6657	108
38.6731	105
38.6805	98
38.6879	121
38.6953	105
38.7027	100
38.7101	91
38.7175	113
38.7249	76
38.7323	98
38.7397	89
38.7470	97
38.7544	95
38.7618	118
38.7692	97
38.7766	95
38.7840	99
38.7914	97
38.7988	100
38.8062	116
38.8136	106
38.8210	103
38.8284	88
38.8358	104
38.8432	90
38.8506	104
38.8580	98
38.8654	99
38.8728	95
38.8802	103
38.8876	100
38.8950	93
38.9023	117
38.9097	82
38.9171	80
38.9245	88
38.9319	105
38.9393	99
38.9467	108
38.9541	109
38.9615	96
38.9689	82
38.9763	120
38.9837	90
38.9911	92
38.9985	102
39.0059	89
39.0133	83
39.0207	84
39.0281	101
39.0355	106
39.0429	103
39.0503	100
39.0576	108
39.0650	114
39.0724	96
39.0798	120
39.0872	106
39.0946	116
39.1020	114
39.1094	116
39.1168	112
39.1242	103
39.1316	124
39.1390	109
39.1464	98
39.1538	144
39.1612	108
39.1686	137
39.1760	125
39.1834	132
39.1908	120
39.1982	121
39.2056	125
39.2129	144
39.2203	141
39.2277	156
39.2351	182
39.2425	178
39.2499	183
39.2573	193
39.2647	232
39.2721	225
39.2795	272
39.2869	302
39.2943	239
39.3017	312
39.3091	306
39.3165	305
39.3239	295
39.3313	310
39.3387	262
39.3461	257
39.3535	238
39.3609	260
39.3682	258
39.3756	274
39.3830	254
39.3904	246
39.3978	288
39.4052	271
39.4126	296
39.4200	289
39.4274	275
39.4348	244
39.4422	267
39.4496	260
39.4570	251
39.4644	242
39.4718	241
39.4792	249
39.4866	195
39.4940	205
39.5014	233
39.5088	226
39.5162	195
39.5235	236
39.5309	212
39.5383	240
39.5457	171
39.5531	221
39.5605	196
39.5679	186
39.5753	201
39.5827	144
39.5901	180
39.5975	157
39.6049	157
39.6123	149
39.6197	132
39.6271	148
39.6345	142
39.6419	154
39.6493	149
39.6567	141
39.6641	127
39.6715	122
39.6788	114
39.6862	121
39.6936	133
39.7010	115
39.7084	105
39.7158	118
39.7232	116
39.7306	123
39.7380	124
39.7454	94
39.7528	122
39.7602	114
39.7676	136
39.7750	116
39.7824	127
39.7898	134
39.7972	123
39.8046	140
39.8120	127
39.8194	118
39.8268	117
39.8342	123
39.8415	118
39.8489	123
39.8563	138
39.8637	126
39.8711	125
39.8785	112
39.8859	116
39.8933	103
39.9007	111
39.9081	97
39.9155	134
39.9229	107
39.9303	103
39.9377	97
39.9451	145
39.9525	92
39.9599	102
39.9673	122
39.9747	97
39.9821	86
39.9895	119
39.9968	89
