2.0000	208
2.0074	156
2.0148	162
2.0222	183
2.0296	208
2.0370	197
2.0444	182
2.0518	188
2.0592	194
2.0666	184
2.0740	171
2.0813	162
2.0887	193
2.0961	178
2.1035	166
2.1109	175
2.1183	182
2.1257	164
2.1331	187
2.1405	174
2.1479	192
2.1553	174
2.1627	165
2.1701	198
2.1775	171
2.1849	165
2.1923	189
2.1997	172
2.2071	199
2.2145	182
2.2219	176
2.2293	182
2.2366	171
2.2440	179
2.2514	196
2.2588	177
2.2662	189
2.2736	187
2.2810	193
2.2884	190
2.2958	200
2.3032	181
2.3106	201
2.3180	176
2.3254	196
2.3328	186
2.3402	182
2.3476	201
2.3550	187
2.3624	183
2.3698	195
2.3772	168
2.3846	162
2.3919	172
2.3993	202
2.4067	193
2.4141	181
2.4215	181
2.4289	168
2.4363	175
2.4437	183
2.4511	198
2.4585	212
2.4659	215
2.4733	199
2.4807	180
2.4881	200
2.4955	192
2.5029	184
2.5103	177
2.5177	190
2.5251	184
2.5325	181
2.5399	170
2.5472	178
2.5546	176
2.5620	187
2.5694	177
2.5768	175
2.5842	177
2.5916	176
2.5990	162
2.6064	193
2.6138	182
2.6212	165
2.6286	178
2.6360	171
2.6434	163
2.6508	190
2.6582	179
2.6656	154
2.6730	169
2.6804	200
2.6878	153
2.6952	176
2.7025	162
2.7099	193
2.7173	158
2.7247	184
2.7321	167
2.7395	182
2.7469	180
2.7543	174
2.7617	156
2.7691	167
2.7765	180
2.7839	170
2.7913	170
2.7987	160
2.8061	174
2.8135	184
2.8209	145
2.8283	171
2.8357	175
2.8431	179
2.8505	178
2.8579	171
2.8652	166
2.8726	190
2.8800	179
2.8874	185
2.8948	161
2.9022	164
2.9096	155
2.9170	160
2.9244	168
2.9318	181
2.9392	164
2.9466	177
2.9540	152
2.9614	170
2.9688	185
2.9762	151
2.9836	163
2.9910	175
2.9984	176
3.0058	166
3.0132	169
3.0205	162
3.0279	176
3.0353	161
3.0427	166
3.0501	164
3.0575	171
3.0649	163
3.0723	182
3.0797	172
3.0871	162
3.0945	170
3.1019	170
3.1093	193
3.1167	182
3.1241	177
3.1315	151
3.1389	166
3.1463	171
3.1537	156
3.1611	175
3.1685	171
3.1758	162
3.1832	133
3.1906	161
3.1980	163
3.2054	153
3.2128	179
3.2202	173
3.2276	154
3.2350	176
3.2424	151
3.2498	172
3.2572	142
3.2646	149
3.2720	160
3.2794	156
3.2868	153
3.2942	168
3.3016	192
3.3090	161
3.3164	158
3.3238	167
3.3311	157
3.3385	160
3.3459	177
3.3533	161
3.3607	155
3.3681	180
3.3755	158
3.3829	167
3.3903	158
3.3977	146
3.4051	147
3.4125	165
3.4199	157
3.4273	150
3.4347	168
3.4421	148
3.4495	162
3.4569	165
3.4643	175
3.4717	180
3.4791	163
3.4864	152
3.4938	151
3.5012	152
3.5086	141
3.5160	149
3.5234	165
3.5308	179
3.5382	174
3.5456	152
3.5530	167
3.5604	149
3.5678	169
3.5752	149
3.5826	165
3.5900	144
3.5974	139
3.6048	159
3.6122	168
3.6196	151
3.6270	154
3.6344	162
3.6417	164
3.6491	151
3.6565	157
3.6639	136
3.6713	161
3.6787	157
3.6861	155
3.6935	155
3.7009	145
3.7083	153
3.7157	159
3.7231	161
3.7305	160
3.7379	150
3.7453	132
3.7527	162
3.7601	144
3.7675	145
3.7749	154
3.7823	161
3.7897	152
3.7970	155
3.8044	124
3.8118	140
3.8192	155
3.8266	128
3.8340	149
3.8414	155
3.8488	128
3.8562	127
3.8636	152
3.8710	145
3.8784	116
3.8858	138
3.8932	134
3.9006	129
3.9080	150
3.9154	132
3.9228	155
3.9302	131
3.9376	140
3.9450	141
3.9523	164
3.9597	150
3.9671	138
3.9745	134
3.9819	138
3.9893	148
3.9967	143
4.0041	132
4.0115	113
4.0189	139
4.0263	126
4.0337	141
4.0411	140
4.0485	139
4.0559	115
4.0633	115
4.0707	121
4.0781	131
4.0855	126
4.0929	144
4.1003	133
4.1076	138
4.1150	133
4.1224	119
4.1298	121
4.1372	144
4.1446	131
4.1520	114
4.1594	113
4.1668	119
4.1742	124
4.1816	108
4.1890	132
4.1964	120
4.2038	143
4.2112	109
4.2186	115
4.2260	137
4.2334	122
4.2408	112
4.2482	122
4.2556	115
4.2629	121
4.2703	100
4.2777	110
4.2851	113
4.2925	112
4.2999	108
4.3073	135
4.3147	129
4.3221	105
4.3295	108
4.3369	126
4.3443	119
4.3517	128
4.3591	118
4.3665	109
4.3739	112
4.3813	116
4.3887	119
4.3961	122
4.4035	110
4.4109	129
4.4183	147
4.4256	115
4.4330	112
4.4404	102
4.4478	106
4.4552	118
4.4626	95
4.4700	125
4.4774	122
4.4848	116
4.4922	114
4.4996	125
4.5070	116
4.5144	136
4.5218	113
4.5292	108
4.5366	121
4.5440	119
4.5514	121
4.5588	108
4.5662	119
4.5736	132
4.5809	114
4.5883	108
4.5957	148
4.6031	102
4.6105	112
4.6179	106
4.6253	139
4.6327	123
4.6401	117
4.6475	109
4.6549	88
4.6623	107
4.6697	109
4.6771	106
4.6845	107
4.6919	108
4.6993	102
4.7067	117
4.7141	107
4.7215	118
4.7289	105
4.7362	97
4.7436	112
4.7510	110
4.7584	113
4.7658	99
4.7732	115
4.7806	120
4.7880	107
4.7954	94
4.8028	102
4.8102	109
4.8176	105
4.8250	99
4.8324	91
4.8398	99
4.8472	97
4.8546	83
4.8620	118
4.8694	95
4.8768	104
4.8842	94
4.8915	124
4.8989	106
4.9063	104
4.9137	114
4.9211	107
4.9285	88
4.9359	105
4.9433	111
4.9507	115
4.9581	116
4.9655	92
4.9729	119
4.9803	103
4.9877	95
4.9951	110
5.0025	96
5.0099	98
5.0173	101
5.0247	105
5.0321	107
5.0395	94
5.0468	104
5.0542	101
5.0616	100
5.0690	109
5.0764	104
5.0838	107
5.0912	89
5.0986	111
5.1060	114
5.1134	97
5.1208	94
5.1282	90
5.1356	96
5.1430	118
5.1504	80
5.1578	87
5.1652	101
5.1726	98
5.1800	109
5.1874	90
5.1948	97
5.2021	91
5.2095	93
5.2169	85
5.2243	110
5.2317	86
5.2391	75
5.2465	100
5.2539	103
5.2613	88
5.2687	91
5.2761	84
5.2835	95
5.2909	97
5.2983	113
5.3057	96
5.3131	96
5.3205	94
5.3279	79
5.3353	112
5.3427	107
5.3501	96
5.3574	97
5.3648	110
5.3722	97
5.3796	94
5.3870	91
5.3944	96
5.4018	94
5.4092	79
5.4166	107
5.4240	85
5.4314	84
5.4388	102
5.4462	94
5.4536	104
5.4610	106
5.4684	87
5.4758	99
5.4832	90
5.4906	83
5.4980	89
5.5054	87
5.5127	99
5.5201	83
5.5275	102
5.5349	102
5.5423	74
5.5497	101
5.5571	83
5.5645	101
5.5719	88
5.5793	79
5.5867	96
5.5941	96
5.6015	101
5.6089	100
5.6163	103
5.6237	107
5.6311	90
5.6385	86
5.6459	93
5.6533	85
5.6607	62
5.6680	85
5.6754	102
5.6828	75
5.6902	94
5.6976	92
5.7050	74
5.7124	92
5.7198	80
5.7272	86
5.7346	104
5.7420	79
5.7494	87
5.7568	97
5.7642	90
5.7716	73
5.7790	93
5.7864	109
5.7938	95
5.8012	83
5.8086	103
5.8160	91
5.8233	89
5.8307	82
5.8381	90
5.8455	88
5.8529	84
5.8603	104
5.8677	90
5.8751	91
5.8825	85
5.8899	104
5.8973	92
5.9047	94
5.9121	88
5.9195	88
5.9269	81
5.9343	80
5.9417	101
5.9491	92
5.9565	76
5.9639	85
5.9713	81
5.9786	66
5.9860	86
5.9934	107
6.0008	101
6.0082	90
6.0156	98
6.0230	91
6.0304	109
6.0378	120
6.0452	124
6.0526	99
6.0600	116
6.0674	132
6.0748	90
6.0822	97
6.0896	91
6.0970	97
6.1044	91
6.1118	82
6.1192	87
6.1266	76
6.1340	57
6.1413	74
6.1487	70
6.1561	60
6.1635	101
6.1709	90
6.1783	86
6.1857	84
6.1931	94
6.2005	75
6.2079	97
6.2153	112
6.2227	89
6.2301	83
6.2375	77
6.2449	88
6.2523	76
6.2597	90
6.2671	106
6.2745	86
6.2819	87
6.2893	85
6.2966	75
6.3040	76
6.3114	85
6.3188	68
6.3262	73
6.3336	97
6.3410	76
6.3484	81
6.3558	84
6.3632	89
6.3706	92
6.3780	77
6.3854	97
6.3928	91
6.4002	65
6.4076	83
6.4150	84
6.4224	77
6.4298	74
6.4372	96
6.4446	61
6.4519	78
6.4593	87
6.4667	80
6.4741	89
6.4815	62
6.4889	92
6.4963	69
6.5037	80
6.5111	89
6.5185	93
6.5259	76
6.5333	89
6.5407	89
6.5481	69
6.5555	92
6.5629	85
6.5703	85
6.5777	82
6.5851	87
6.5925	83
6.5999	75
6.6072	77
6.6146	86
6.6220	76
6.6294	82
6.6368	74
6.6442	90
6.6516	76
6.6590	72
6.6664	74
6.6738	82
6.6812	73
6.6886	77
6.6960	85
6.7034	70
6.7108	80
6.7182	90
6.7256	81
6.7330	82
6.7404	83
6.7478	66
6.7552	87
6.7625	76
6.7699	76
6.7773	66
6.7847	86
6.7921	91
6.7995	76
6.8069	73
6.8143	93
6.8217	76
6.8291	77
6.8365	103
6.8439	84
6.8513	73
6.8587	74
6.8661	82
6.8735	76
6.8809	74
6.8883	81
6.8957	79
6.9031	85
6.9105	99
6.9178	85
6.9252	80
6.9326	97
6.9400	74
6.9474	74
6.9548	81
6.9622	80
6.9696	84
6.9770	95
6.9844	98
6.9918	87
6.9992	68
7.0066	72
7.0140	103
7.0214	81
7.0288	99
7.0362	82
7.0436	73
7.0510	69
7.0584	71
7.0658	84
7.0731	76
7.0805	79
7.0879	81
7.0953	74
7.1027	87
7.1101	97
7.1175	75
7.1249	89
7.1323	96
7.1397	78
7.1471	86
7.1545	89
7.1619	77
7.1693	81
7.1767	85
7.1841	97
7.1915	97
7.1989	76
7.2063	77
7.2137	64
7.2211	85
7.2284	77
7.2358	78
7.2432	75
7.2506	96
7.2580	75
7.2654	78
7.2728	84
7.2802	72
7.2876	80
7.2950	79
7.3024	73
7.3098	73
7.3172	81
7.3246	71
7.3320	66
7.3394	77
7.3468	82
7.3542	84
7.3616	76
7.3690	76
7.3764	77
7.3837	93
7.3911	98
7.3985	78
7.4059	64
7.4133	73
7.4207	74
7.4281	74
7.4355	76
7.4429	64
7.4503	87
7.4577	77
7.4651	71
7.4725	69
7.4799	73
7.4873	72
7.4947	60
7.5021	63
7.5095	65
7.5169	92
7.5243	101
7.5317	69
7.5390	78
7.5464	90
7.5538	90
7.5612	83
7.5686	93
7.5760	79
7.5834	80
7.5908	72
7.5982	82
7.6056	75
7.6130	74
7.6204	64
7.6278	78
7.6352	78
7.6426	73
7.6500	72
7.6574	72
7.6648	71
7.6722	95
7.6796	86
7.6870	89
7.6944	82
7.7017	83
7.7091	72
7.7165	105
7.7239	84
7.7313	71
7.7387	95
7.7461	101
7.7535	101
7.7609	83
7.7683	79
7.7757	94
7.7831	61
7.7905	77
7.7979	59
7.8053	81
7.8127	85
7.8201	75
7.8275	86
7.8349	74
7.8423	72
7.8497	81
7.8570	75
7.8644	79
7.8718	71
7.8792	83
7.8866	99
7.8940	85
7.9014	68
7.9088	84
7.9162	86
7.9236	93
7.9310	84
7.9384	86
7.9458	89
7.9532	87
7.9606	90
7.9680	64
7.9754	72
7.9828	78
7.9902	81
7.9976	91
8.0050	66
8.0123	86
8.0197	96
8.0271	89
8.0345	71
8.0419	94
8.0493	96
8.0567	92
8.0641	90
8.0715	94
8.0789	77
8.0863	79
8.0937	73
8.1011	87
8.1085	95
8.1159	81
8.1233	91
8.1307	92
8.1381	87
8.1455	91
8.1529	102
8.1603	66
8.1676	98
8.1750	70
8.1824	90
8.1898	104
8.1972	89
8.2046	120
8.2120	101
8.2194	119
8.2268	109
8.2342	103
8.2416	137
8.2490	133
8.2564	141
8.2638	120
8.2712	146
8.2786	150
8.2860	160
8.2934	144
8.3008	138
8.3082	171
8.3156	184
8.3229	173
8.3303	213
8.3377	204
8.3451	173
8.3525	216
8.3599	245
8.3673	227
8.3747	305
8.3821	247
8.3895	314
8.3969	340
8.4043	337
8.4117	373
8.4191	423
8.4265	449
8.4339	541
8.4413	559
8.4487	629
8.4561	756
8.4635	879
8.4709	1094
8.4782	1231
8.4856	1621
8.4930	2091
8.5004	2644
8.5078	3381
8.5152	4149
8.5226	4943
8.5300	5104
8.5374	4811
8.5448	4516
8.5522	3835
8.5596	3064
8.5670	2437
8.5744	1814
8.5818	1343
8.5892	1061
8.5966	728
8.6040	621
8.6114	499
8.6188	459
8.6262	403
8.6335	341
8.6409	304
8.6483	260
8.6557	236
8.6631	221
8.6705	195
8.6779	170
8.6853	180
8.6927	176
8.7001	147
8.7075	128
8.7149	151
8.7223	147
8.7297	147
8.7371	133
8.7445	142
8.7519	123
8.7593	122
8.7667	114
8.7741	131
8.7815	134
8.7888	110
8.7962	125
8.8036	107
8.8110	129
8.8184	142
8.8258	131
8.8332	116
8.8406	111
8.8480	116
8.8554	102
8.8628	103
8.8702	88
8.8776	134
8.8850	98
8.8924	122
8.8998	88
8.9072	118
8.9146	111
8.9220	120
8.9294	107
8.9368	105
8.9441	105
8.9515	111
8.9589	115
8.9663	125
8.9737	100
8.9811	101
8.9885	96
8.9959	98
9.0033	118
9.0107	105
9.0181	101
9.0255	106
9.0329	115
9.0403	95
9.0477	108
9.0551	93
9.0625	111
9.0699	121
9.0773	103
9.0847	109
9.0921	104
9.0994	107
9.1068	92
9.1142	97
9.1216	105
9.1290	106
9.1364	94
9.1438	111
9.1512	115
9.1586	104
9.1660	106
9.1734	98
9.1808	99
9.1882	110
9.1956	96
9.2030	113
9.2104	86
9.2178	100
9.2252	98
9.2326	115
9.2400	109
9.2474	91
9.2548	84
9.2621	114
9.2695	121
9.2769	90
9.2843	99
9.2917	97
9.2991	103
9.3065	89
9.3139	88
9.3213	89
9.3287	99
9.3361	107
9.3435	108
9.3509	101
9.3583	98
9.3657	91
9.3731	102
9.3805	127
9.3879	95
9.3953	99
9.4027	81
9.4101	98
9.4174	91
9.4248	100
9.4322	68
9.4396	106
9.4470	109
9.4544	79
9.4618	104
9.4692	88
9.4766	82
9.4840	99
9.4914	82
9.4988	88
9.5062	79
9.5136	77
9.5210	85
9.5284	68
9.5358	87
9.5432	112
9.5506	82
9.5580	113
9.5654	86
9.5727	89
9.5801	76
9.5875	98
9.5949	95
9.6023	77
9.6097	94
9.6171	100
9.6245	89
9.6319	80
9.6393	86
9.6467	76
9.6541	89
9.6615	105
9.6689	100
9.6763	98
9.6837	96
9.6911	107
9.6985	86
9.7059	88
9.7133	94
9.7207	102
9.7280	87
9.7354	84
9.7428	89
9.7502	86
9.7576	97
9.7650	85
9.7724	90
9.7798	103
9.7872	94
9.7946	82
9.8020	74
9.8094	95
9.8168	99
9.8242	78
9.8316	76
9.8390	91
9.8464	92
9.8538	93
9.8612	86
9.8686	96
9.8760	94
9.8833	78
9.8907	92
9.8981	88
9.9055	95
9.9129	103
9.9203	100
9.9277	89
9.9351	79
9.9425	88
9.9499	89
9.9573	75
9.9647	84
9.9721	96
9.9795	84
9.9869	94
9.9943	89
10.0017	84
10.0091	100
10.0165	96
10.0239	95
10.0313	105
10.0386	83
10.0460	82
10.0534	94
10.0608	80
10.0682	94
10.0756	87
10.0830	86
10.0904	94
10.0978	93
10.1052	64
10.1126	88
10.1200	101
10.1274	101
10.1348	101
10.1422	80
10.1496	83
10.1570	73
10.1644	70
10.1718	80
10.1792	88
10.1866	91
10.1939	116
10.2013	77
10.2087	89
10.2161	72
10.2235	90
10.2309	87
10.2383	76
10.2457	93
10.2531	78
10.2605	90
10.2679	102
10.2753	84
10.2827	87
10.2901	93
10.2975	97
10.3049	96
10.3123	87
10.3197	92
10.3271	90
10.3345	100
10.3419	87
10.3492	79
10.3566	78
10.3640	71
10.3714	86
10.3788	89
10.3862	77
10.3936	98
10.4010	86
10.4084	92
10.4158	81
10.4232	70
10.4306	86
10.4380	86
10.4454	87
10.4528	91
10.4602	63
10.4676	86
10.4750	96
10.4824	72
10.4898	89
10.4972	83
10.5045	73
10.5119	82
10.5193	82
10.5267	96
10.5341	98
10.5415	82
10.5489	79
10.5563	85
10.5637	88
10.5711	92
10.5785	96
10.5859	88
10.5933	85
10.6007	88
10.6081	79
10.6155	92
10.6229	83
10.6303	114
10.6377	91
10.6451	88
10.6525	76
10.6598	71
10.6672	97
10.6746	71
10.6820	88
10.6894	88
10.6968	92
10.7042	103
10.7116	88
10.7190	91
10.7264	86
10.7338	85
10.7412	78
10.7486	78
10.7560	88
10.7634	72
10.7708	83
10.7782	98
10.7856	79
10.7930	67
10.8004	86
10.8078	91
10.8151	82
10.8225	81
10.8299	79
10.8373	88
10.8447	81
10.8521	86
10.8595	75
10.8669	77
10.8743	88
10.8817	93
10.8891	83
10.8965	101
10.9039	94
10.9113	79
10.9187	99
10.9261	87
10.9335	96
10.9409	104
10.9483	81
10.9557	83
10.9631	88
10.9705	93
10.9778	89
10.9852	91
10.9926	77
11.0000	88
11.0074	67
11.0148	84
11.0222	88
11.0296	91
11.0370	90
11.0444	74
11.0518	90
11.0592	97
11.0666	88
11.0740	68
11.0814	76
11.0888	95
11.0962	91
11.1036	62
11.1110	93
11.1184	81
11.1258	95
11.1331	89
11.1405	99
11.1479	80
11.1553	62
11.1627	86
11.1701	73
11.1775	85
11.1849	82
11.1923	86
11.1997	96
11.2071	108
11.2145	79
11.2219	92
11.2293	89
11.2367	80
11.2441	86
11.2515	93
11.2589	72
11.2663	95
11.2737	98
11.2811	87
11.2884	99
11.2958	82
11.3032	93
11.3106	84
11.3180	86
11.3254	84
11.3328	87
11.3402	77
11.3476	87
11.3550	95
11.3624	94
11.3698	91
11.3772	111
11.3846	97
11.3920	102
11.3994	87
11.4068	87
11.4142	103
11.4216	79
11.4290	79
11.4364	83
11.4437	103
11.4511	97
11.4585	106
11.4659	95
11.4733	104
11.4807	87
11.4881	80
11.4955	82
11.5029	106
11.5103	107
11.5177	89
11.5251	101
11.5325	104
11.5399	108
11.5473	100
11.5547	80
11.5621	106
11.5695	117
11.5769	95
11.5843	129
11.5917	122
11.5990	134
11.6064	130
11.6138	151
11.6212	152
11.6286	151
11.6360	184
11.6434	222
11.6508	247
11.6582	238
11.6656	269
11.6730	364
11.6804	383
11.6878	435
11.6952	510
11.7026	576
11.7100	600
11.7174	645
11.7248	625
11.7322	632
11.7396	584
11.7470	540
11.7543	459
11.7617	429
11.7691	364
11.7765	347
11.7839	295
11.7913	277
11.7987	296
11.8061	269
11.8135	233
11.8209	250
11.8283	213
11.8357	189
11.8431	199
11.8505	148
11.8579	147
11.8653	132
11.8727	127
11.8801	109
11.8875	116
11.8949	132
11.9023	107
11.9096	111
11.9170	93
11.9244	102
11.9318	119
11.9392	112
11.9466	115
11.9540	114
11.9614	104
11.9688	117
11.9762	125
11.9836	108
11.9910	105
11.9984	120
12.0058	108
12.0132	113
12.0206	123
12.0280	117
12.0354	103
12.0428	109
12.0502	118
12.0576	113
12.0649	110
12.0723	108
12.0797	122
12.0871	130
12.0945	131
12.1019	127
12.1093	113
12.1167	110
12.1241	140
12.1315	129
12.1389	126
12.1463	115
12.1537	134
12.1611	159
12.1685	134
12.1759	126
12.1833	138
12.1907	134
12.1981	159
12.2055	136
12.2129	157
12.2202	156
12.2276	181
12.2350	181
12.2424	192
12.2498	200
12.2572	244
12.2646	249
12.2720	294
12.2794	327
12.2868	428
12.2942	497
12.3016	583
12.3090	674
12.3164	924
12.3238	1132
12.3312	1416
12.3386	1846
12.3460	2394
12.3534	2845
12.3608	3147
12.3682	3111
12.3755	2911
12.3829	2678
12.3903	2253
12.3977	1934
12.4051	1557
12.4125	1274
12.4199	935
12.4273	758
12.4347	601
12.4421	512
12.4495	419
12.4569	350
12.4643	327
12.4717	267
12.4791	308
12.4865	235
12.4939	239
12.5013	197
12.5087	197
12.5161	173
12.5235	203
12.5309	167
12.5382	177
12.5456	145
12.5530	171
12.5604	144
12.5678	134
12.5752	160
12.5826	134
12.5900	120
12.5974	107
12.6048	107
12.6122	133
12.6196	153
12.6270	113
12.6344	121
12.6418	91
12.6492	126
12.6566	128
12.6640	136
12.6714	122
12.6788	133
12.6862	118
12.6935	126
12.7009	104
12.7083	113
12.7157	107
12.7231	104
12.7305	109
12.7379	123
12.7453	113
12.7527	108
12.7601	121
12.7675	103
12.7749	122
12.7823	110
12.7897	117
12.7971	104
12.8045	114
12.8119	131
12.8193	105
12.8267	120
12.8341	104
12.8415	111
12.8488	103
12.8562	116
12.8636	94
12.8710	100
12.8784	110
12.8858	105
12.8932	117
12.9006	111
12.9080	98
12.9154	111
12.9228	108
12.9302	119
12.9376	131
12.9450	109
12.9524	118
12.9598	145
12.9672	138
12.9746	124
12.9820	106
12.9894	93
12.9968	127
13.0041	126
13.0115	112
13.0189	119
13.0263	128
13.0337	105
13.0411	113
13.0485	116
13.0559	113
13.0633	118
13.0707	127
13.0781	96
13.0855	134
13.0929	140
13.1003	115
13.1077	133
13.1151	161
13.1225	136
13.1299	175
13.1373	160
13.1447	156
13.1521	189
13.1594	182
13.1668	200
13.1742	232
13.1816	264
13.1890	287
13.1964	324
13.2038	396
13.2112	444
13.2186	548
13.2260	698
13.2334	831
13.2408	834
13.2482	897
13.2556	857
13.2630	948
13.2704	1030
13.2778	979
13.2852	1092
13.2926	965
13.3000	866
13.3074	793
13.3147	672
13.3221	596
13.3295	519
13.3369	432
13.3443	323
13.3517	243
13.3591	234
13.3665	224
13.3739	199
13.3813	150
13.3887	184
13.3961	170
13.4035	174
13.4109	159
13.4183	156
13.4257	151
13.4331	126
13.4405	162
13.4479	121
13.4553	152
13.4627	133
13.4700	122
13.4774	141
13.4848	163
13.4922	148
13.4996	138
13.5070	147
13.5144	154
13.5218	156
13.5292	150
13.5366	168
13.5440	161
13.5514	178
13.5588	181
13.5662	204
13.5736	205
13.5810	224
13.5884	253
13.5958	283
13.6032	316
13.6106	348
13.6180	424
13.6253	477
13.6327	555
13.6401	674
13.6475	877
13.6549	934
13.6623	1202
13.6697	1411
13.6771	1486
13.6845	1565
13.6919	1446
13.6993	1452
13.7067	1431
13.7141	1323
13.7215	1175
13.7289	1006
13.7363	876
13.7437	786
13.7511	659
13.7585	604
13.7659	509
13.7733	460
13.7806	393
13.7880	378
13.7954	329
13.8028	310
13.8102	299
13.8176	272
13.8250	253
13.8324	203
13.8398	231
13.8472	200
13.8546	179
13.8620	133
13.8694	161
13.8768	139
13.8842	148
13.8916	127
13.8990	140
13.9064	125
13.9138	136
13.9212	141
13.9286	120
13.9359	109
13.9433	121
13.9507	105
13.9581	133
13.9655	130
13.9729	105
13.9803	115
13.9877	112
13.9951	110
14.0025	93
14.0099	110
14.0173	118
14.0247	121
14.0321	109
14.0395	107
14.0469	106
14.0543	108
14.0617	99
14.0691	117
14.0765	98
14.0839	99
14.0913	114
14.0986	109
14.1060	123
14.1134	119
14.1208	102
14.1282	111
14.1356	97
14.1430	99
14.1504	135
14.1578	99
14.1652	107
14.1726	111
14.1800	120
14.1874	92
14.1948	95
14.2022	104
14.2096	100
14.2170	121
14.2244	140
14.2318	124
14.2392	103
14.2466	93
14.2539	115
14.2613	107
14.2687	129
14.2761	120
14.2835	134
14.2909	120
14.2983	144
14.3057	109
14.3131	130
14.3205	133
14.3279	138
14.3353	184
14.3427	153
14.3501	160
14.3575	190
14.3649	238
14.3723	263
14.3797	266
14.3871	312
14.3945	328
14.4019	371
14.4092	388
14.4166	423
14.4240	461
14.4314	424
14.4388	508
14.4462	478
14.4536	422
14.4610	373
14.4684	358
14.4758	311
14.4832	317
14.4906	328
14.4980	253
14.5054	237
14.5128	216
14.5202	204
14.5276	175
14.5350	176
14.5424	149
14.5498	159
14.5572	144
14.5645	134
14.5719	142
14.5793	121
14.5867	111
14.5941	130
14.6015	135
14.6089	133
14.6163	113
14.6237	122
14.6311	99
14.6385	102
14.6459	98
14.6533	106
14.6607	109
14.6681	99
14.6755	84
14.6829	86
14.6903	86
14.6977	97
14.7051	105
14.7125	100
14.7198	82
14.7272	92
14.7346	105
14.7420	96
14.7494	104
14.7568	86
14.7642	114
14.7716	98
14.7790	77
14.7864	96
14.7938	103
14.8012	91
14.8086	110
14.8160	96
14.8234	87
14.8308	87
14.8382	88
14.8456	99
14.8530	95
14.8604	97
14.8678	93
14.8751	90
14.8825	106
14.8899	105
14.8973	85
14.9047	103
14.9121	86
14.9195	99
14.9269	106
14.9343	92
14.9417	86
14.9491	82
14.9565	95
14.9639	89
14.9713	97
14.9787	102
14.9861	81
14.9935	83
15.0009	86
15.0083	109
15.0157	96
15.0231	89
15.0304	85
15.0378	100
15.0452	94
15.0526	78
15.0600	84
15.0674	71
15.0748	94
15.0822	85
15.0896	79
15.0970	99
15.1044	88
15.1118	89
15.1192	86
15.1266	117
15.1340	84
15.1414	88
15.1488	96
15.1562	92
15.1636	93
15.1710	94
15.1784	98
15.1857	95
15.1931	87
15.2005	97
15.2079	84
15.2153	100
15.2227	87
15.2301	94
15.2375	90
15.2449	111
15.2523	80
15.2597	91
15.2671	83
15.2745	86
15.2819	82
15.2893	92
15.2967	102
15.3041	88
15.3115	78
15.3189	100
15.3263	85
15.3337	82
15.3410	104
15.3484	83
15.3558	90
15.3632	99
15.3706	90
15.3780	100
15.3854	89
15.3928	89
15.4002	83
15.4076	108
15.4150	91
15.4224	92
15.4298	101
15.4372	110
15.4446	90
15.4520	77
15.4594	92
15.4668	100
15.4742	114
15.4816	112
15.4890	92
15.4963	89
15.5037	117
15.5111	126
15.5185	110
15.5259	121
15.5333	148
15.5407	160
15.5481	158
15.5555	164
15.5629	209
15.5703	179
15.5777	175
15.5851	177
15.5925	162
15.5999	162
15.6073	172
15.6147	152
15.6221	153
15.6295	155
15.6369	138
15.6443	118
15.6516	119
15.6590	133
15.6664	108
15.6738	106
15.6812	104
15.6886	104
15.6960	95
15.7034	102
15.7108	112
15.7182	95
15.7256	86
15.7330	94
15.7404	87
15.7478	80
15.7552	93
15.7626	74
15.7700	102
15.7774	91
15.7848	84
15.7922	69
15.7996	76
15.8070	83
15.8143	94
15.8217	86
15.8291	92
15.8365	76
15.8439	94
15.8513	112
15.8587	81
15.8661	79
15.8735	74
15.8809	86
15.8883	77
15.8957	93
15.9031	82
15.9105	96
15.9179	85
15.9253	78
15.9327	67
15.9401	104
15.9475	86
15.9549	95
15.9623	79
15.9696	80
15.9770	71
15.9844	93
15.9918	84
15.9992	75
16.0066	74
16.0140	87
16.0214	74
16.0288	82
16.0362	86
16.0436	80
16.0510	75
16.0584	99
16.0658	82
16.0732	68
16.0806	96
16.0880	72
16.0954	84
16.1028	88
16.1102	89
16.1176	78
16.1249	81
16.1323	79
16.1397	108
16.1471	109
16.1545	88
16.1619	70
16.1693	84
16.1767	84
16.1841	84
16.1915	81
16.1989	77
16.2063	83
16.2137	92
16.2211	78
16.2285	97
16.2359	65
16.2433	90
16.2507	89
16.2581	72
16.2655	99
16.2729	75
16.2802	74
16.2876	87
16.2950	87
16.3024	78
16.3098	74
16.3172	76
16.3246	90
16.3320	78
16.3394	84
16.3468	82
16.3542	80
16.3616	76
16.3690	91
16.3764	99
16.3838	83
16.3912	85
16.3986	63
16.4060	101
16.4134	73
16.4208	101
16.4282	96
16.4355	81
16.4429	92
16.4503	80
16.4577	84
16.4651	89
16.4725	80
16.4799	78
16.4873	108
16.4947	84
16.5021	73
16.5095	84
16.5169	84
16.5243	101
16.5317	115
16.5391	79
16.5465	108
16.5539	104
16.5613	84
16.5687	104
16.5761	86
16.5835	91
16.5908	90
16.5982	102
16.6056	112
16.6130	116
16.6204	93
16.6278	121
16.6352	117
16.6426	108
16.6500	93
16.6574	97
16.6648	126
16.6722	126
16.6796	109
16.6870	136
16.6944	124
16.7018	147
16.7092	146
16.7166	183
16.7240	192
16.7314	207
16.7388	234
16.7461	224
16.7535	255
16.7609	273
16.7683	319
16.7757	368
16.7831	414
16.7905	461
16.7979	512
16.8053	587
16.8127	722
16.8201	744
16.8275	797
16.8349	837
16.8423	911
16.8497	877
16.8571	847
16.8645	867
16.8719	811
16.8793	863
16.8867	736
16.8941	698
16.9014	627
16.9088	605
16.9162	559
16.9236	525
16.9310	483
16.9384	423
16.9458	436
16.9532	432
16.9606	403
16.9680	378
16.9754	463
16.9828	471
16.9902	507
16.9976	689
17.0050	770
17.0124	927
17.0198	1087
17.0272	1119
17.0346	1103
17.0420	1045
17.0494	961
17.0567	902
17.0641	771
17.0715	735
17.0789	634
17.0863	558
17.0937	492
17.1011	380
17.1085	350
17.1159	312
17.1233	273
17.1307	250
17.1381	220
17.1455	207
17.1529	209
17.1603	174
17.1677	176
17.1751	143
17.1825	158
17.1899	151
17.1973	123
17.2047	137
17.2120	126
17.2194	110
17.2268	114
17.2342	105
17.2416	107
17.2490	106
17.2564	97
17.2638	102
17.2712	119
17.2786	108
17.2860	117
17.2934	106
17.3008	109
17.3082	86
17.3156	85
17.3230	89
17.3304	95
17.3378	85
17.3452	113
17.3526	96
17.3600	88
17.3674	94
17.3747	84
17.3821	93
17.3895	100
17.3969	95
17.4043	88
17.4117	94
17.4191	89
17.4265	69
17.4339	97
17.4413	95
17.4487	79
17.4561	92
17.4635	106
17.4709	105
17.4783	86
17.4857	95
17.4931	95
17.5005	87
17.5079	97
17.5153	96
17.5227	94
17.5300	100
17.5374	112
17.5448	94
17.5522	95
17.5596	79
17.5670	96
17.5744	88
17.5818	102
17.5892	96
17.5966	110
17.6040	78
17.6114	112
17.6188	105
17.6262	110
17.6336	98
17.6410	105
17.6484	93
17.6558	113
17.6632	122
17.6706	98
17.6780	125
17.6853	113
17.6927	119
17.7001	134
17.7075	119
17.7149	157
17.7223	146
17.7297	160
17.7371	157
17.7445	213
17.7519	254
17.7593	231
17.7667	291
17.7741	319
17.7815	398
17.7889	451
17.7963	520
17.8037	560
17.8111	640
17.8185	714
17.8259	820
17.8333	822
17.8406	910
17.8480	954
17.8554	986
17.8628	1055
17.8702	1131
17.8776	1098
17.8850	1118
17.8924	956
17.8998	986
17.9072	936
17.9146	811
17.9220	865
17.9294	818
17.9368	688
17.9442	665
17.9516	653
17.9590	551
17.9664	512
17.9738	452
17.9812	366
17.9886	382
17.9959	325
18.0033	274
18.0107	284
18.0181	272
18.0255	218
18.0329	193
18.0403	194
18.0477	193
18.0551	144
18.0625	196
18.0699	160
18.0773	146
18.0847	135
18.0921	129
18.0995	131
18.1069	132
18.1143	118
18.1217	124
18.1291	120
18.1365	112
18.1439	129
18.1512	122
18.1586	99
18.1660	98
18.1734	113
18.1808	107
18.1882	106
18.1956	111
18.2030	105
18.2104	108
18.2178	107
18.2252	89
18.2326	119
18.2400	85
18.2474	111
18.2548	79
18.2622	109
18.2696	103
18.2770	75
18.2844	93
18.2918	98
18.2992	91
18.3065	95
18.3139	87
18.3213	107
18.3287	105
18.3361	99
18.3435	100
18.3509	101
18.3583	91
18.3657	102
18.3731	93
18.3805	98
18.3879	83
18.3953	130
18.4027	121
18.4101	126
18.4175	113
18.4249	110
18.4323	121
18.4397	129
18.4471	132
18.4545	168
18.4618	180
18.4692	175
18.4766	192
18.4840	257
18.4914	266
18.4988	290
18.5062	372
18.5136	404
18.5210	525
18.5284	589
18.5358	727
18.5432	909
18.5506	1030
18.5580	1128
18.5654	1243
18.5728	1235
18.5802	1250
18.5876	1361
18.5950	1402
18.6024	1352
18.6098	1275
18.6171	1239
18.6245	1226
18.6319	1136
18.6393	1066
18.6467	1006
18.6541	949
18.6615	847
18.6689	788
18.6763	708
18.6837	699
18.6911	589
18.6985	521
18.7059	462
18.7133	427
18.7207	380
18.7281	349
18.7355	304
18.7429	281
18.7503	274
18.7577	225
18.7651	238
18.7724	205
18.7798	203
18.7872	193
18.7946	183
18.8020	157
18.8094	178
18.8168	147
18.8242	135
18.8316	140
18.8390	121
18.8464	140
18.8538	113
18.8612	103
18.8686	110
18.8760	106
18.8834	113
18.8908	80
18.8982	107
18.9056	107
18.9130	105
18.9204	91
18.9278	92
18.9351	108
18.9425	104
18.9499	97
18.9573	102
18.9647	89
18.9721	94
18.9795	93
18.9869	92
18.9943	88
19.0017	78
19.0091	107
19.0165	76
19.0239	106
19.0313	93
19.0387	94
19.0461	80
19.0535	89
19.0609	75
19.0683	89
19.0757	82
19.0831	72
19.0904	80
19.0978	83
19.1052	88
19.1126	95
19.1200	73
19.1274	94
19.1348	81
19.1422	76
19.1496	74
19.1570	83
19.1644	97
19.1718	73
19.1792	68
19.1866	97
19.1940	62
19.2014	84
19.2088	76
19.2162	72
19.2236	88
19.2310	80
19.2384	74
19.2457	80
19.2531	76
19.2605	90
19.2679	62
19.2753	91
19.2827	86
19.2901	92
19.2975	79
19.3049	90
19.3123	88
19.3197	94
19.3271	101
19.3345	93
19.3419	85
19.3493	98
19.3567	78
19.3641	104
19.3715	92
19.3789	88
19.3863	89
19.3937	99
19.4010	100
19.4084	114
19.4158	142
19.4232	152
19.4306	172
19.4380	195
19.4454	202
19.4528	219
19.4602	248
19.4676	256
19.4750	214
19.4824	248
19.4898	214
19.4972	236
19.5046	236
19.5120	237
19.5194	221
19.5268	208
19.5342	208
19.5416	175
19.5490	174
19.5563	184
19.5637	163
19.5711	150
19.5785	140
19.5859	137
19.5933	118
19.6007	113
19.6081	111
19.6155	99
19.6229	105
19.6303	93
19.6377	103
19.6451	86
19.6525	71
19.6599	86
19.6673	91
19.6747	95
19.6821	84
19.6895	86
19.6969	72
19.7043	81
19.7116	74
19.7190	87
19.7264	86
19.7338	91
19.7412	80
19.7486	76
19.7560	87
19.7634	96
19.7708	92
19.7782	96
19.7856	66
19.7930	90
19.8004	76
19.8078	86
19.8152	89
19.8226	87
19.8300	105
19.8374	89
19.8448	82
19.8522	102
19.8596	84
19.8669	83
19.8743	100
19.8817	113
19.8891	87
19.8965	102
19.9039	81
19.9113	94
19.9187	81
19.9261	78
19.9335	78
19.9409	81
19.9483	98
19.9557	76
19.9631	107
19.9705	82
19.9779	90
19.9853	86
19.9927	89
20.0001	77
20.0075	94
20.0149	81
20.0222	87
20.0296	84
20.0370	82
20.0444	63
20.0518	98
20.0592	92
20.0666	82
20.0740	72
20.0814	70
20.0888	97
20.0962	91
20.1036	78
20.1110	89
20.1184	69
20.1258	97
20.1332	98
20.1406	103
20.1480	90
20.1554	85
20.1628	83
20.1702	94
20.1775	93
20.1849	80
20.1923	86
20.1997	94
20.2071	100
20.2145	74
20.2219	94
20.2293	83
20.2367	80
20.2441	103
20.2515	79
20.2589	92
20.2663	90
20.2737	87
20.2811	90
20.2885	119
20.2959	95
20.3033	88
20.3107	102
20.3181	98
20.3255	99
20.3328	88
20.3402	92
20.3476	102
20.3550	102
20.3624	101
20.3698	103
20.3772	105
20.3846	116
20.3920	109
20.3994	123
20.4068	156
20.4142	129
20.4216	155
20.4290	178
20.4364	201
20.4438	220
20.4512	251
20.4586	310
20.4660	311
20.4734	420
20.4808	475
20.4882	513
20.4955	632
20.5029	724
20.5103	830
20.5177	907
20.5251	997
20.5325	1035
20.5399	1001
20.5473	1076
20.5547	1100
20.5621	1086
20.5695	1057
20.5769	1042
20.5843	1047
20.5917	966
20.5991	998
20.6065	938
20.6139	860
20.6213	755
20.6287	698
20.6361	634
20.6435	598
20.6508	578
20.6582	532
20.6656	488
20.6730	450
20.6804	373
20.6878	339
20.6952	353
20.7026	293
20.7100	274
20.7174	267
20.7248	224
20.7322	223
20.7396	198
20.7470	175
20.7544	149
20.7618	153
20.7692	167
20.7766	153
20.7840	151
20.7914	129
20.7988	129
20.8061	121
20.8135	127
20.8209	110
20.8283	116
20.8357	100
20.8431	124
20.8505	104
20.8579	125
20.8653	124
20.8727	127
20.8801	150
20.8875	144
20.8949	118
20.9023	157
20.9097	184
20.9171	205
20.9245	257
20.9319	274
20.9393	337
20.9467	367
20.9541	359
20.9614	368
20.9688	347
20.9762	352
20.9836	367
20.9910	365
20.9984	337
21.0058	380
21.0132	353
21.0206	360
21.0280	363
21.0354	343
21.0428	334
21.0502	277
21.0576	254
21.0650	288
21.0724	269
21.0798	281
21.0872	262
21.0946	240
21.1020	208
21.1094	206
21.1167	222
21.1241	189
21.1315	208
21.1389	178
21.1463	169
21.1537	150
21.1611	153
21.1685	141
21.1759	130
21.1833	131
21.1907	121
21.1981	130
21.2055	133
21.2129	136
21.2203	139
21.2277	138
21.2351	112
21.2425	121
21.2499	126
21.2573	118
21.2647	111
21.2720	106
21.2794	129
21.2868	111
21.2942	128
21.3016	118
21.3090	104
21.3164	134
21.3238	143
21.3312	111
21.3386	112
21.3460	133
21.3534	121
21.3608	131
21.3682	118
21.3756	135
21.3830	126
21.3904	131
21.3978	141
21.4052	145
21.4126	156
21.4200	153
21.4273	178
21.4347	175
21.4421	199
21.4495	212
21.4569	257
21.4643	326
21.4717	332
21.4791	406
21.4865	500
21.4939	586
21.5013	664
21.5087	720
21.5161	705
21.5235	711
21.5309	689
21.5383	625
21.5457	569
21.5531	612
21.5605	620
21.5679	608
21.5753	550
21.5826	499
21.5900	434
21.5974	428
21.6048	379
21.6122	359
21.6196	336
21.6270	341
21.6344	314
21.6418	298
21.6492	282
21.6566	302
21.6640	329
21.6714	305
21.6788	330
21.6862	340
21.6936	370
21.7010	378
21.7084	361
21.7158	403
21.7232	433
21.7306	407
21.7379	398
21.7453	463
21.7527	379
21.7601	411
21.7675	441
21.7749	419
21.7823	403
21.7897	396
21.7971	399
21.8045	383
21.8119	380
21.8193	391
21.8267	409
21.8341	402
21.8415	387
21.8489	391
21.8563	401
21.8637	426
21.8711	470
21.8785	496
21.8859	561
21.8932	644
21.9006	753
21.9080	909
21.9154	1121
21.9228	1439
21.9302	1818
21.9376	2282
21.9450	2961
21.9524	3339
21.9598	3801
21.9672	4108
21.9746	4065
21.9820	3980
21.9894	3868
21.9968	3823
22.0042	3957
22.0116	4028
22.0190	4026
22.0264	3946
22.0338	3508
22.0412	3048
22.0485	2681
22.0559	2310
22.0633	2088
22.0707	1974
22.0781	1709
22.0855	1598
22.0929	1344
22.1003	1132
22.1077	930
22.1151	848
22.1225	779
22.1299	653
22.1373	604
22.1447	584
22.1521	546
22.1595	483
22.1669	476
22.1743	377
22.1817	411
22.1891	353
22.1965	355
22.2039	314
22.2112	289
22.2186	263
22.2260	268
22.2334	233
22.2408	228
22.2482	230
22.2556	207
22.2630	208
22.2704	172
22.2778	168
22.2852	191
22.2926	155
22.3000	163
22.3074	156
22.3148	156
22.3222	143
22.3296	164
22.3370	137
22.3444	162
22.3518	137
22.3592	113
22.3665	147
22.3739	129
22.3813	143
22.3887	113
22.3961	137
22.4035	147
22.4109	133
22.4183	132
22.4257	131
22.4331	134
22.4405	143
22.4479	141
22.4553	112
22.4627	113
22.4701	108
22.4775	122
22.4849	119
22.4923	133
22.4997	106
22.5071	115
22.5145	111
22.5218	106
22.5292	110
22.5366	120
22.5440	123
22.5514	122
22.5588	116
22.5662	97
22.5736	106
22.5810	130
22.5884	93
22.5958	116
22.6032	121
22.6106	135
22.6180	128
22.6254	104
22.6328	113
22.6402	120
22.6476	122
22.6550	132
22.6624	121
22.6698	120
22.6771	134
22.6845	183
22.6919	151
22.6993	178
22.7067	185
22.7141	217
22.7215	254
22.7289	301
22.7363	394
22.7437	424
22.7511	456
22.7585	485
22.7659	515
22.7733	467
22.7807	494
22.7881	478
22.7955	462
22.8029	456
22.8103	492
22.8177	397
22.8251	404
22.8324	383
22.8398	367
22.8472	361
22.8546	297
22.8620	300
22.8694	278
22.8768	266
22.8842	242
22.8916	253
22.8990	214
22.9064	220
22.9138	199
22.9212	172
22.9286	152
22.9360	171
22.9434	169
22.9508	161
22.9582	115
22.9656	134
22.9730	119
22.9804	106
22.9877	119
22.9951	126
23.0025	130
23.0099	111
23.0173	121
23.0247	112
23.0321	83
23.0395	109
23.0469	109
23.0543	116
23.0617	105
23.0691	109
23.0765	93
23.0839	86
23.0913	98
23.0987	96
23.1061	86
23.1135	107
23.1209	99
23.1283	105
23.1357	101
23.1430	111
23.1504	97
23.1578	103
23.1652	102
23.1726	88
23.1800	111
23.1874	88
23.1948	105
23.2022	85
23.2096	95
23.2170	111
23.2244	110
23.2318	92
23.2392	103
23.2466	93
23.2540	103
23.2614	95
23.2688	92
23.2762	91
23.2836	97
23.2910	116
23.2983	95
23.3057	100
23.3131	96
23.3205	96
23.3279	94
23.3353	122
23.3427	89
23.3501	95
23.3575	100
23.3649	117
23.3723	117
23.3797	113
23.3871	92
23.3945	119
23.4019	110
23.4093	123
23.4167	117
23.4241	120
23.4315	131
23.4389	141
23.4463	177
23.4536	171
23.4610	173
23.4684	231
23.4758	211
23.4832	223
23.4906	186
23.4980	210
23.5054	168
23.5128	183
23.5202	197
23.5276	178
23.5350	197
23.5424	246
23.5498	225
23.5572	195
23.5646	203
23.5720	192
23.5794	190
23.5868	196
23.5942	145
23.6016	153
23.6089	182
23.6163	157
23.6237	174
23.6311	147
23.6385	146
23.6459	154
23.6533	126
23.6607	113
23.6681	111
23.6755	114
23.6829	118
23.6903	133
23.6977	113
23.7051	116
23.7125	106
23.7199	113
23.7273	112
23.7347	105
23.7421	115
23.7495	98
23.7569	103
23.7643	129
23.7716	94
23.7790	110
23.7864	107
23.7938	108
23.8012	109
23.8086	104
23.8160	109
23.8234	124
23.8308	107
23.8382	123
23.8456	134
23.8530	135
23.8604	124
23.8678	118
23.8752	156
23.8826	150
23.8900	164
23.8974	180
23.9048	179
23.9122	196
23.9196	225
23.9269	250
23.9343	268
23.9417	313
23.9491	351
23.9565	375
23.9639	464
23.9713	518
23.9787	567
23.9861	672
23.9935	590
24.0009	698
24.0083	666
24.0157	653
24.0231	631
24.0305	627
24.0379	680
24.0453	642
24.0527	624
24.0601	616
24.0675	550
24.0749	535
24.0822	506
24.0896	450
24.0970	473
24.1044	450
24.1118	430
24.1192	411
24.1266	377
24.1340	387
24.1414	344
24.1488	334
24.1562	322
24.1636	256
24.1710	305
24.1784	279
24.1858	260
24.1932	243
24.2006	210
24.2080	205
24.2154	227
24.2228	224
24.2302	184
24.2375	208
24.2449	203
24.2523	193
24.2597	181
24.2671	209
24.2745	198
24.2819	224
24.2893	224
24.2967	210
24.3041	210
24.3115	211
24.3189	196
24.3263	256
24.3337	256
24.3411	253
24.3485	317
24.3559	364
24.3633	366
24.3707	385
24.3781	418
24.3855	437
24.3928	484
24.4002	457
24.4076	504
24.4150	525
24.4224	502
24.4298	517
24.4372	502
24.4446	524
24.4520	511
24.4594	501
24.4668	452
24.4742	452
24.4816	444
24.4890	420
24.4964	377
24.5038	373
24.5112	353
24.5186	308
24.5260	320
24.5334	311
24.5408	288
24.5481	274
24.5555	255
24.5629	233
24.5703	238
24.5777	221
24.5851	233
24.5925	192
24.5999	190
24.6073	164
24.6147	172
24.6221	178
24.6295	144
24.6369	151
24.6443	144
24.6517	142
24.6591	137
24.6665	124
24.6739	122
24.6813	130
24.6887	109
24.6961	129
24.7034	113
24.7108	121
24.7182	121
24.7256	148
24.7330	152
24.7404	164
24.7478	186
24.7552	214
24.7626	224
24.7700	252
24.7774	315
24.7848	355
24.7922	344
24.7996	316
24.8070	300
24.8144	278
24.8218	257
24.8292	259
24.8366	251
24.8440	255
24.8514	231
24.8587	239
24.8661	225
24.8735	217
24.8809	168
24.8883	157
24.8957	151
24.9031	159
24.9105	153
24.9179	120
24.9253	123
24.9327	147
24.9401	135
24.9475	130
24.9549	109
24.9623	101
24.9697	117
24.9771	113
24.9845	119
24.9919	104
24.9993	88
25.0067	107
25.0140	124
25.0214	110
25.0288	92
25.0362	125
25.0436	102
25.0510	106
25.0584	108
25.0658	105
25.0732	105
25.0806	96
25.0880	124
25.0954	133
25.1028	125
25.1102	109
25.1176	123
25.1250	83
25.1324	99
25.1398	93
25.1472	107
25.1546	124
25.1620	101
25.1693	106
25.1767	110
25.1841	121
25.1915	102
25.1989	119
25.2063	107
25.2137	109
25.2211	112
25.2285	108
25.2359	116
25.2433	107
25.2507	110
25.2581	105
25.2655	131
25.2729	101
25.2803	103
25.2877	118
25.2951	130
25.3025	118
25.3099	112
25.3173	112
25.3247	128
25.3320	104
25.3394	134
25.3468	108
25.3542	120
25.3616	135
25.3690	135
25.3764	145
25.3838	147
25.3912	148
25.3986	152
25.4060	168
25.4134	193
25.4208	230
25.4282	246
25.4356	271
25.4430	312
25.4504	401
25.4578	498
25.4652	625
25.4726	681
25.4800	823
25.4873	878
25.4947	905
25.5021	827
25.5095	745
25.5169	745
25.5243	689
25.5317	723
25.5391	678
25.5465	716
25.5539	704
25.5613	719
25.5687	670
25.5761	670
25.5835	619
25.5909	614
25.5983	653
25.6057	700
25.6131	754
25.6205	739
25.6279	779
25.6353	678
25.6426	683
25.6500	607
25.6574	541
25.6648	534
25.6722	498
25.6796	516
25.6870	543
25.6944	463
25.7018	444
25.7092	385
25.7166	329
25.7240	316
25.7314	271
25.7388	259
25.7462	247
25.7536	250
25.7610	245
25.7684	200
25.7758	243
25.7832	207
25.7906	203
25.7979	226
25.8053	215
25.8127	209
25.8201	239
25.8275	229
25.8349	246
25.8423	271
25.8497	283
25.8571	298
25.8645	300
25.8719	347
25.8793	315
25.8867	328
25.8941	304
25.9015	356
25.9089	339
25.9163	346
25.9237	321
25.9311	311
25.9385	294
25.9459	318
25.9532	264
25.9606	276
25.9680	260
25.9754	243
25.9828	232
25.9902	221
25.9976	202
26.0050	212
26.0124	183
26.0198	204
26.0272	179
26.0346	172
26.0420	183
26.0494	154
26.0568	164
26.0642	155
26.0716	111
26.0790	152
26.0864	138
26.0938	105
26.1012	145
26.1085	136
26.1159	147
26.1233	131
26.1307	129
26.1381	118
26.1455	118
26.1529	123
26.1603	139
26.1677	124
26.1751	106
26.1825	127
26.1899	95
26.1973	140
26.2047	115
26.2121	131
26.2195	118
26.2269	120
26.2343	104
26.2417	122
26.2491	132
26.2565	127
26.2638	110
26.2712	126
26.2786	113
26.2860	131
26.2934	124
26.3008	120
26.3082	122
26.3156	147
26.3230	127
26.3304	131
26.3378	140
26.3452	127
26.3526	170
26.3600	152
26.3674	147
26.3748	169
26.3822	163
26.3896	204
26.3970	193
26.4044	215
26.4118	224
26.4191	245
26.4265	262
26.4339	274
26.4413	356
26.4487	349
26.4561	370
26.4635	399
26.4709	510
26.4783	545
26.4857	651
26.4931	826
26.5005	930
26.5079	1113
26.5153	1136
26.5227	1273
26.5301	1379
26.5375	1379
26.5449	1438
26.5523	1383
26.5597	1480
26.5671	1436
26.5744	1460
26.5818	1438
26.5892	1421
26.5966	1306
26.6040	1222
26.6114	1255
26.6188	1147
26.6262	1077
26.6336	1035
26.6410	1011
26.6484	889
26.6558	799
26.6632	746
26.6706	745
26.6780	657
26.6854	605
26.6928	519
26.7002	462
26.7076	454
26.7150	388
26.7224	372
26.7297	317
26.7371	326
26.7445	318
26.7519	268
26.7593	262
26.7667	244
26.7741	226
26.7815	218
26.7889	177
26.7963	194
26.8037	168
26.8111	146
26.8185	161
26.8259	136
26.8333	171
26.8407	129
26.8481	141
26.8555	141
26.8629	115
26.8703	133
26.8777	136
26.8850	112
26.8924	121
26.8998	140
26.9072	110
26.9146	123
26.9220	149
26.9294	105
26.9368	120
26.9442	118
26.9516	126
26.9590	108
26.9664	100
26.9738	138
26.9812	114
26.9886	131
26.9960	130
27.0034	96
27.0108	117
27.0182	121
27.0256	114
27.0330	120
27.0404	92
27.0477	112
27.0551	95
27.0625	107
27.0699	105
27.0773	118
27.0847	111
27.0921	95
27.0995	107
27.1069	101
27.1143	98
27.1217	107
27.1291	101
27.1365	117
27.1439	124
27.1513	102
27.1587	140
27.1661	107
27.1735	104
27.1809	111
27.1883	122
27.1957	89
27.2030	113
27.2104	105
27.2178	127
27.2252	128
27.2326	97
27.2400	125
27.2474	105
27.2548	121
27.2622	119
27.2696	109
27.2770	115
27.2844	110
27.2918	113
27.2992	116
27.3066	121
27.3140	102
27.3214	121
27.3288	122
27.3362	106
27.3436	153
27.3510	126
27.3583	155
27.3657	145
27.3731	180
27.3805	177
27.3879	165
27.3953	175
27.4027	215
27.4101	235
27.4175	282
27.4249	336
27.4323	345
27.4397	446
27.4471	480
27.4545	617
27.4619	686
27.4693	772
27.4767	861
27.4841	779
27.4915	820
27.4989	754
27.5063	685
27.5136	670
27.5210	648
27.5284	638
27.5358	683
27.5432	637
27.5506	703
27.5580	588
27.5654	601
27.5728	539
27.5802	460
27.5876	439
27.5950	399
27.6024	361
27.6098	345
27.6172	311
27.6246	338
27.6320	285
27.6394	321
27.6468	274
27.6542	292
27.6616	244
27.6689	248
27.6763	242
27.6837	247
27.6911	192
27.6985	208
27.7059	196
27.7133	181
27.7207	164
27.7281	177
27.7355	157
27.7429	171
27.7503	131
27.7577	143
27.7651	130
27.7725	142
27.7799	137
27.7873	136
27.7947	123
27.8021	122
27.8095	118
27.8169	130
27.8242	113
27.8316	136
27.8390	111
27.8464	108
27.8538	112
27.8612	121
27.8686	107
27.8760	116
27.8834	116
27.8908	117
27.8982	106
27.9056	107
27.9130	91
27.9204	103
27.9278	104
27.9352	100
27.9426	102
27.9500	106
27.9574	97
27.9648	91
27.9722	94
27.9795	92
27.9869	94
27.9943	99
28.0017	95
28.0091	100
28.0165	102
28.0239	106
28.0313	99
28.0387	83
28.0461	93
28.0535	102
28.0609	99
28.0683	85
28.0757	82
28.0831	84
28.0905	90
28.0979	81
28.1053	105
28.1127	96
28.1201	93
28.1275	117
28.1348	108
28.1422	84
28.1496	96
28.1570	92
28.1644	111
28.1718	93
28.1792	110
28.1866	90
28.1940	100
28.2014	87
28.2088	97
28.2162	109
28.2236	112
28.2310	108
28.2384	94
28.2458	114
28.2532	102
28.2606	98
28.2680	105
28.2754	110
28.2828	119
28.2901	113
28.2975	98
28.3049	127
28.3123	122
28.3197	109
28.3271	111
28.3345	133
28.3419	155
28.3493	150
28.3567	164
28.3641	154
28.3715	152
28.3789	190
28.3863	196
28.3937	198
28.4011	217
28.4085	250
28.4159	322
28.4233	304
28.4307	391
28.4381	388
28.4454	434
28.4528	455
28.4602	440
28.4676	435
28.4750	405
28.4824	417
28.4898	456
28.4972	405
28.5046	424
28.5120	442
28.5194	483
28.5268	457
28.5342	446
28.5416	442
28.5490	370
28.5564	378
28.5638	338
28.5712	311
28.5786	320
28.5860	313
28.5934	304
28.6008	250
28.6081	271
28.6155	237
28.6229	223
28.6303	223
28.6377	210
28.6451	179
28.6525	192
28.6599	181
28.6673	136
28.6747	152
28.6821	131
28.6895	147
28.6969	150
28.7043	157
28.7117	117
28.7191	137
28.7265	112
28.7339	119
28.7413	121
28.7487	107
28.7561	117
28.7634	108
28.7708	108
28.7782	108
28.7856	105
28.7930	102
28.8004	103
28.8078	112
28.8152	123
28.8226	112
28.8300	133
28.8374	145
28.8448	154
28.8522	138
28.8596	139
28.8670	125
28.8744	164
28.8818	177
28.8892	186
28.8966	188
28.9040	197
28.9114	212
28.9187	215
28.9261	203
28.9335	222
28.9409	225
28.9483	231
28.9557	238
28.9631	248
28.9705	277
28.9779	285
28.9853	291
28.9927	330
29.0001	346
29.0075	358
29.0149	345
29.0223	319
29.0297	372
29.0371	307
29.0445	323
29.0519	319
29.0593	314
29.0667	304
29.0740	319
29.0814	292
29.0888	289
29.0962	292
29.1036	300
29.1110	268
29.1184	226
29.1258	233
29.1332	222
29.1406	239
29.1480	212
29.1554	206
29.1628	172
29.1702	169
29.1776	161
29.1850	129
29.1924	168
29.1998	133
29.2072	151
29.2146	143
29.2220	111
29.2293	132
29.2367	114
29.2441	104
29.2515	147
29.2589	109
29.2663	105
29.2737	120
29.2811	103
29.2885	85
29.2959	90
29.3033	95
29.3107	128
29.3181	105
29.3255	108
29.3329	84
29.3403	77
29.3477	94
29.3551	105
29.3625	85
29.3699	81
29.3773	109
29.3846	89
29.3920	100
29.3994	98
29.4068	106
29.4142	81
29.4216	86
29.4290	92
29.4364	95
29.4438	95
29.4512	84
29.4586	101
29.4660	91
29.4734	87
29.4808	96
29.4882	92
29.4956	98
29.5030	126
29.5104	90
29.5178	102
29.5252	101
29.5326	105
29.5399	113
29.5473	122
29.5547	109
29.5621	121
29.5695	113
29.5769	133
29.5843	113
29.5917	118
29.5991	107
29.6065	117
29.6139	134
29.6213	127
29.6287	141
29.6361	119
29.6435	119
29.6509	113
29.6583	107
29.6657	130
29.6731	118
29.6805	119
29.6879	112
29.6952	108
29.7026	126
29.7100	119
29.7174	119
29.7248	107
29.7322	95
29.7396	98
29.7470	97
29.7544	86
29.7618	97
29.7692	78
29.7766	71
29.7840	87
29.7914	95
29.7988	99
29.8062	82
29.8136	97
29.8210	86
29.8284	85
29.8358	86
29.8432	87
29.8505	79
29.8579	76
29.8653	77
29.8727	75
29.8801	83
29.8875	64
29.8949	78
29.9023	77
29.9097	107
29.9171	75
29.9245	83
29.9319	71
29.9393	71
29.9467	63
29.9541	83
29.9615	86
29.9689	90
29.9763	79
29.9837	68
29.9911	93
29.9985	94
30.0058	86
30.0132	90
30.0206	85
30.0280	83
30.0354	81
30.0428	82
30.0502	73
30.0576	82
30.0650	85
30.0724	80
30.0798	93
30.0872	91
30.0946	82
30.1020	77
30.1094	81
30.1168	66
30.1242	85
30.1316	73
30.1390	86
30.1464	93
30.1538	77
30.1612	75
30.1685	91
30.1759	82
30.1833	74
30.1907	77
30.1981	79
30.2055	74
30.2129	87
30.2203	76
30.2277	93
30.2351	102
30.2425	70
30.2499	82
30.2573	97
30.2647	76
30.2721	90
30.2795	81
30.2869	81
30.2943	79
30.3017	82
30.3091	89
30.3165	81
30.3238	64
30.3312	86
30.3386	74
30.3460	73
30.3534	72
30.3608	74
30.3682	76
30.3756	82
30.3830	72
30.3904	77
30.3978	74
30.4052	50
30.4126	73
30.4200	83
30.4274	78
30.4348	97
30.4422	80
30.4496	95
30.4570	79
30.4644	91
30.4718	111
30.4791	98
30.4865	104
30.4939	106
30.5013	113
30.5087	133
30.5161	129
30.5235	126
30.5309	127
30.5383	132
30.5457	126
30.5531	131
30.5605	124
30.5679	121
30.5753	126
30.5827	122
30.5901	143
30.5975	126
30.6049	144
30.6123	137
30.6197	137
30.6271	119
30.6344	150
30.6418	133
30.6492	133
30.6566	154
30.6640	156
30.6714	139
30.6788	140
30.6862	148
30.6936	130
30.7010	122
30.7084	121
30.7158	124
30.7232	144
30.7306	128
30.7380	118
30.7454	121
30.7528	118
30.7602	117
30.7676	115
30.7750	123
30.7824	96
30.7897	101
30.7971	111
30.8045	105
30.8119	123
30.8193	104
30.8267	99
30.8341	102
30.8415	97
30.8489	85
30.8563	99
30.8637	97
30.8711	89
30.8785	76
30.8859	87
30.8933	88
30.9007	80
30.9081	69
30.9155	104
30.9229	81
30.9303	77
30.9377	88
30.9450	69
30.9524	80
30.9598	75
30.9672	68
30.9746	78
30.9820	83
30.9894	80
30.9968	67
31.0042	76
31.0116	104
31.0190	92
31.0264	95
31.0338	86
31.0412	74
31.0486	82
31.0560	95
31.0634	82
31.0708	67
31.0782	93
31.0856	80
31.0930	81
31.1003	90
31.1077	73
31.1151	84
31.1225	78
31.1299	81
31.1373	74
31.1447	83
31.1521	72
31.1595	70
31.1669	66
31.1743	74
31.1817	92
31.1891	96
31.1965	79
31.2039	80
31.2113	77
31.2187	78
31.2261	81
31.2335	76
31.2409	93
31.2483	89
31.2556	103
31.2630	68
31.2704	107
31.2778	111
31.2852	96
31.2926	80
31.3000	86
31.3074	91
31.3148	110
31.3222	90
31.3296	113
31.3370	113
31.3444	99
31.3518	99
31.3592	105
31.3666	108
31.3740	115
31.3814	121
31.3888	145
31.3962	151
31.4036	148
31.4109	168
31.4183	179
31.4257	172
31.4331	186
31.4405	200
31.4479	200
31.4553	192
31.4627	209
31.4701	211
31.4775	190
31.4849	215
31.4923	208
31.4997	230
31.5071	188
31.5145	197
31.5219	214
31.5293	204
31.5367	202
31.5441	206
31.5515	206
31.5589	191
31.5662	190
31.5736	206
31.5810	174
31.5884	190
31.5958	205
31.6032	183
31.6106	187
31.6180	211
31.6254	178
31.6328	168
31.6402	166
31.6476	163
31.6550	133
31.6624	158
31.6698	155
31.6772	135
31.6846	151
31.6920	127
31.6994	122
31.7068	145
31.7142	127
31.7215	118
31.7289	119
31.7363	116
31.7437	114
31.7511	120
31.7585	116
31.7659	103
31.7733	105
31.7807	81
31.7881	109
31.7955	87
31.8029	90
31.8103	109
31.8177	90
31.8251	86
31.8325	103
31.8399	105
31.8473	94
31.8547	92
31.8621	73
31.8695	87
31.8769	77
31.8842	109
31.8916	103
31.8990	108
31.9064	96
31.9138	120
31.9212	127
31.9286	117
31.9360	134
31.9434	125
31.9508	140
31.9582	96
31.9656	124
31.9730	123
31.9804	125
31.9878	110
31.9952	140
32.0026	123
32.0100	115
32.0174	119
32.0248	116
32.0322	106
32.0395	111
32.0469	102
32.0543	96
32.0617	120
32.0691	106
32.0765	107
32.0839	106
32.0913	110
32.0987	84
32.1061	94
32.1135	86
32.1209	78
32.1283	88
32.1357	96
32.1431	73
32.1505	88
32.1579	89
32.1653	74
32.1727	75
32.1801	94
32.1875	75
32.1948	86
32.2022	92
32.2096	75
32.2170	89
32.2244	61
32.2318	86
32.2392	89
32.2466	73
32.2540	84
32.2614	82
32.2688	75
32.2762	81
32.2836	65
32.2910	70
32.2984	73
32.3058	70
32.3132	74
32.3206	62
32.3280	72
32.3354	95
32.3428	76
32.3501	90
32.3575	77
32.3649	64
32.3723	93
32.3797	68
32.3871	74
32.3945	66
32.4019	75
32.4093	81
32.4167	62
32.4241	69
32.4315	66
32.4389	94
32.4463	56
32.4537	66
32.4611	80
32.4685	87
32.4759	71
32.4833	60
32.4907	80
32.4981	88
32.5054	65
32.5128	54
32.5202	75
32.5276	86
32.5350	88
32.5424	73
32.5498	83
32.5572	76
32.5646	67
32.5720	74
32.5794	85
32.5868	88
32.5942	87
32.6016	79
32.6090	70
32.6164	76
32.6238	75
32.6312	65
32.6386	69
32.6460	80
32.6534	76
32.6607	86
32.6681	67
32.6755	64
32.6829	64
32.6903	84
32.6977	86
32.7051	95
32.7125	73
32.7199	69
32.7273	90
32.7347	95
32.7421	74
32.7495	78
32.7569	58
32.7643	86
32.7717	76
32.7791	93
32.7865	81
32.7939	63
32.8013	78
32.8087	75
32.8160	79
32.8234	73
32.8308	106
32.8382	81
32.8456	92
32.8530	70
32.8604	69
32.8678	82
32.8752	104
32.8826	81
32.8900	73
32.8974	90
32.9048	72
32.9122	76
32.9196	74
32.9270	78
32.9344	86
32.9418	72
32.9492	82
32.9566	71
32.9640	86
32.9713	75
32.9787	82
32.9861	102
32.9935	90
33.0009	80
33.0083	75
33.0157	80
33.0231	92
33.0305	86
33.0379	92
33.0453	75
33.0527	70
33.0601	74
33.0675	80
33.0749	85
33.0823	75
33.0897	92
33.0971	72
33.1045	94
33.1119	91
33.1193	69
33.1266	100
33.1340	79
33.1414	84
33.1488	86
33.1562	78
33.1636	87
33.1710	66
33.1784	77
33.1858	82
33.1932	92
33.2006	81
33.2080	87
33.2154	67
33.2228	84
33.2302	96
33.2376	85
33.2450	67
33.2524	78
33.2598	86
33.2672	83
33.2746	80
33.2819	90
33.2893	89
33.2967	109
33.3041	97
33.3115	88
33.3189	112
33.3263	99
33.3337	112
33.3411	84
33.3485	113
33.3559	108
33.3633	107
33.3707	115
33.3781	106
33.3855	96
33.3929	122
33.4003	106
33.4077	129
33.4151	116
33.4225	114
33.4299	122
33.4373	111
33.4446	128
33.4520	106
33.4594	133
33.4668	134
33.4742	133
33.4816	148
33.4890	151
33.4964	153
33.5038	137
33.5112	171
33.5186	183
33.5260	190
33.5334	210
33.5408	201
33.5482	230
33.5556	243
33.5630	268
33.5704	259
33.5778	275
33.5852	269
33.5926	264
33.5999	246
33.6073	311
33.6147	290
33.6221	269
33.6295	257
33.6369	259
33.6443	252
33.6517	284
33.6591	276
33.6665	293
33.6739	252
33.6813	276
33.6887	224
33.6961	256
33.7035	219
33.7109	227
33.7183	211
33.7257	194
33.7331	184
33.7405	183
33.7479	180
33.7552	178
33.7626	185
33.7700	167
33.7774	142
33.7848	159
33.7922	112
33.7996	116
33.8070	125
33.8144	118
33.8218	131
33.8292	103
33.8366	141
33.8440	128
33.8514	127
33.8588	98
33.8662	118
33.8736	116
33.8810	110
33.8884	105
33.8958	123
33.9032	102
33.9105	99
33.9179	117
33.9253	114
33.9327	133
33.9401	133
33.9475	106
33.9549	127
33.9623	120
33.9697	131
33.9771	135
33.9845	139
33.9919	130
33.9993	149
34.0067	136
34.0141	168
34.0215	133
34.0289	147
34.0363	142
34.0437	118
34.0511	158
34.0585	146
34.0658	127
34.0732	128
34.0806	161
34.0880	174
34.0954	143
34.1028	152
34.1102	159
34.1176	131
34.1250	117
34.1324	113
34.1398	143
34.1472	127
34.1546	119
34.1620	117
34.1694	107
34.1768	134
34.1842	107
34.1916	121
34.1990	127
34.2064	113
34.2138	92
34.2211	106
34.2285	110
34.2359	106
34.2433	92
34.2507	87
34.2581	101
34.2655	73
34.2729	78
34.2803	69
34.2877	84
34.2951	74
34.3025	80
34.3099	105
34.3173	94
34.3247	82
34.3321	76
34.3395	72
34.3469	91
34.3543	73
34.3617	95
34.3691	52
34.3764	85
34.3838	84
34.3912	92
34.3986	86
34.4060	75
34.4134	81
34.4208	84
34.4282	76
34.4356	89
34.4430	71
34.4504	68
34.4578	78
34.4652	80
34.4726	73
34.4800	82
34.4874	69
34.4948	83
34.5022	71
34.5096	72
34.5170	75
34.5244	69
34.5317	94
34.5391	74
34.5465	82
34.5539	61
34.5613	77
34.5687	74
34.5761	59
34.5835	75
34.5909	71
34.5983	79
34.6057	70
34.6131	86
34.6205	83
34.6279	57
34.6353	84
34.6427	69
34.6501	61
34.6575	59
34.6649	82
34.6723	86
34.6797	60
34.6870	67
34.6944	86
34.7018	84
34.7092	78
34.7166	77
34.7240	66
34.7314	63
34.7388	63
34.7462	79
34.7536	74
34.7610	87
34.7684	76
34.7758	67
34.7832	77
34.7906	73
34.7980	74
34.8054	73
34.8128	83
34.8202	73
34.8276	60
34.8350	82
34.8423	80
34.8497	74
34.8571	78
34.8645	73
34.8719	75
34.8793	82
34.8867	64
34.8941	80
34.9015	83
34.9089	64
34.9163	71
34.9237	81
34.9311	65
34.9385	64
34.9459	95
34.9533	73
34.9607	78
34.9681	98
34.9755	79
34.9829	84
34.9903	89
34.9977	90
35.0050	100
35.0124	87
35.0198	97
35.0272	82
35.0346	103
35.0420	95
35.0494	95
35.0568	96
35.0642	106
35.0716	70
35.0790	91
35.0864	89
35.0938	94
35.1012	89
35.1086	107
35.1160	94
35.1234	111
35.1308	95
35.1382	86
35.1456	96
35.1530	105
35.1603	126
35.1677	114
35.1751	119
35.1825	108
35.1899	109
35.1973	94
35.2047	113
35.2121	102
35.2195	98
35.2269	112
35.2343	107
35.2417	109
35.2491	131
35.2565	117
35.2639	112
35.2713	101
35.2787	100
35.2861	105
35.2935	88
35.3009	103
35.3083	98
35.3156	94
35.3230	93
35.3304	91
35.3378	105
35.3452	105
35.3526	104
35.3600	83
35.3674	74
35.3748	84
35.3822	81
35.3896	90
35.3970	101
35.4044	82
35.4118	104
35.4192	95
35.4266	104
35.4340	75
35.4414	69
35.4488	92
35.4562	84
35.4636	72
35.4709	103
35.4783	103
35.4857	105
35.4931	90
35.5005	79
35.5079	102
35.5153	76
35.5227	86
35.5301	98
35.5375	92
35.5449	94
35.5523	102
35.5597	97
35.5671	109
35.5745	87
35.5819	98
35.5893	107
35.5967	93
35.6041	93
35.6115	91
35.6189	101
35.6262	87
35.6336	95
35.6410	79
35.6484	86
35.6558	77
35.6632	92
35.6706	96
35.6780	96
35.6854	79
35.6928	83
35.7002	80
35.7076	100
35.7150	91
35.7224	64
35.7298	69
35.7372	71
35.7446	88
35.7520	79
35.7594	74
35.7668	88
35.7742	65
35.7815	73
35.7889	80
35.7963	80
35.8037	69
35.8111	73
35.8185	65
35.8259	73
35.8333	87
35.8407	79
35.8481	69
35.8555	77
35.8629	69
35.8703	87
35.8777	81
35.8851	89
35.8925	93
35.8999	91
35.9073	89
35.9147	90
35.9221	81
35.9295	87
35.9368	91
35.9442	72
35.9516	86
35.9590	77
35.9664	90
35.9738	78
35.9812	100
35.9886	90
35.9960	105
36.0034	118
36.0108	112
36.0182	115
36.0256	126
36.0330	132
36.0404	144
36.0478	160
36.0552	170
36.0626	168
36.0700	186
36.0774	175
36.0848	171
36.0921	185
36.0995	193
36.1069	167
36.1143	166
36.1217	196
36.1291	201
36.1365	209
36.1439	217
36.1513	213
36.1587	206
36.1661	187
36.1735	205
36.1809	214
36.1883	197
36.1957	182
36.2031	216
36.2105	215
36.2179	183
36.2253	185
36.2327	192
36.2401	175
36.2474	183
36.2548	163
36.2622	164
36.2696	196
36.2770	170
36.2844	190
36.2918	162
36.2992	174
36.3066	151
36.3140	200
36.3214	144
36.3288	171
36.3362	164
36.3436	148
36.3510	146
36.3584	155
36.3658	153
36.3732	146
36.3806	126
36.3880	126
36.3954	126
36.4027	109
36.4101	125
36.4175	117
36.4249	158
36.4323	149
36.4397	117
36.4471	115
36.4545	143
36.4619	128
36.4693	130
36.4767	97
36.4841	136
36.4915	109
36.4989	109
36.5063	89
36.5137	102
36.5211	93
36.5285	91
36.5359	80
36.5433	104
36.5507	89
36.5580	87
36.5654	81
36.5728	96
36.5802	105
36.5876	94
36.5950	79
36.6024	93
36.6098	91
36.6172	78
36.6246	62
36.6320	85
36.6394	87
36.6468	75
36.6542	69
36.6616	79
36.6690	83
36.6764	83
36.6838	88
36.6912	61
36.6986	62
36.7060	68
36.7134	72
36.7207	75
36.7281	55
36.7355	65
36.7429	81
36.7503	82
36.7577	79
36.7651	67
36.7725	70
36.7799	73
36.7873	81
36.7947	90
36.8021	85
36.8095	77
36.8169	78
36.8243	61
36.8317	73
36.8391	83
36.8465	77
36.8539	71
36.8613	79
36.8687	67
36.8760	89
36.8834	64
36.8908	69
36.8982	62
36.9056	80
36.9130	65
36.9204	77
36.9278	74
36.9352	64
36.9426	76
36.9500	54
36.9574	82
36.9648	70
36.9722	69
36.9796	74
36.9870	83
36.9944	88
37.0018	78
37.0092	74
37.0166	74
37.0240	83
37.0313	70
37.0387	80
37.0461	70
37.0535	86
37.0609	83
37.0683	69
37.0757	82
37.0831	89
37.0905	63
37.0979	71
37.1053	85
37.1127	85
37.1201	96
37.1275	86
37.1349	81
37.1423	86
37.1497	93
37.1571	97
37.1645	89
37.1719	90
37.1793	99
37.1866	91
37.1940	100
37.2014	89
37.2088	82
37.2162	106
37.2236	90
37.2310	100
37.2384	78
37.2458	79
37.2532	101
37.2606	112
37.2680	78
37.2754	89
37.2828	93
37.2902	112
37.2976	104
37.3050	113
37.3124	87
37.3198	86
37.3272	102
37.3346	94
37.3419	90
37.3493	71
37.3567	70
37.3641	88
37.3715	70
37.3789	81
37.3863	74
37.3937	84
37.4011	79
37.4085	78
37.4159	60
37.4233	80
37.4307	76
37.4381	104
37.4455	64
37.4529	86
37.4603	78
37.4677	83
37.4751	92
37.4825	78
37.4899	90
37.4972	73
37.5046	77
37.5120	75
37.5194	65
37.5268	82
37.5342	86
37.5416	109
37.5490	100
37.5564	79
37.5638	79
37.5712	89
37.5786	87
37.5860	94
37.5934	98
37.6008	88
37.6082	90
37.6156	87
37.6230	97
37.6304	109
37.6378	109
37.6452	116
37.6525	115
37.6599	122
37.6673	131
37.6747	152
37.6821	135
37.6895	143
37.6969	136
37.7043	135
37.7117	137
37.7191	148
37.7265	143
37.7339	150
37.7413	136
37.7487	136
37.7561	124
37.7635	154
37.7709	109
37.7783	120
37.7857	135
37.7931	138
37.8005	121
37.8078	126
37.8152	109
37.8226	116
37.8300	129
37.8374	108
37.8448	122
37.8522	123
37.8596	110
37.8670	116
37.8744	111
37.8818	102
37.8892	96
37.8966	112
37.9040	95
37.9114	105
37.9188	90
37.9262	94
37.9336	108
37.9410	95
37.9484	88
37.9558	78
37.9631	86
37.9705	92
37.9779	99
37.9853	85
37.9927	100
38.0001	93
38.0075	75
38.0149	91
38.0223	86
38.0297	79
38.0371	84
38.0445	88
38.0519	78
38.0593	89
38.0667	69
38.0741	93
38.0815	90
38.0889	88
38.0963	79
38.1037	87
38.1111	87
38.1184	93
38.1258	71
38.1332	86
38.1406	100
38.1480	84
38.1554	86
38.1628	94
38.1702	87
38.1776	79
38.1850	91
38.1924	100
38.1998	95
38.2072	89
38.2146	106
38.2220	97
38.2294	78
38.2368	81
38.2442	97
38.2516	79
38.2590	82
38.2664	111
38.2738	89
38.2811	99
38.2885	123
38.2959	114
38.3033	112
38.3107	119
38.3181	123
38.3255	137
38.3329	129
38.3403	120
38.3477	133
38.3551	148
38.3625	105
38.3699	132
38.3773	127
38.3847	120
38.3921	149
38.3995	126
38.4069	131
38.4143	136
38.4217	144
38.4291	151
38.4364	112
38.4438	121
38.4512	133
38.4586	138
38.4660	128
38.4734	137
38.4808	136
38.4882	155
38.4956	138
38.5030	122
38.5104	134
38.5178	143
38.5252	148
38.5326	135
38.5400	151
38.5474	139
38.5548	126
38.5622	129
38.5696	135
38.5770	141
38.5844	141
38.5917	115
38.5991	126
38.6065	119
38.6139	139
38.6213	137
38.6287	120
38.6361	126
38.6435	105
38.6509	92
38.6583	129
38.6657	113
38.6731	102
38.6805	103
38.6879	108
38.6953	95
38.7027	90
38.7101	101
38.7175	107
38.7249	72
38.7323	104
38.7397	96
38.7470	85
38.7544	106
38.7618	102
38.7692	87
38.7766	90
38.7840	80
38.7914	75
38.7988	104
38.8062	108
38.8136	81
38.8210	83
38.8284	80
38.8358	79
38.8432	89
38.8506	90
38.8580	86
38.8654	86
38.8728	86
38.8802	83
38.8876	85
38.8950	94
38.9023	65
38.9097	85
38.9171	66
38.9245	78
38.9319	89
38.9393	84
38.9467	78
38.9541	52
38.9615	87
38.9689	81
38.9763	72
38.9837	83
38.9911	77
38.9985	84
39.0059	89
39.0133	78
39.0207	84
39.0281	86
39.0355	85
39.0429	90
39.0503	86
39.0576	88
39.0650	68
39.0724	67
39.0798	83
39.0872	89
39.0946	100
39.1020	82
39.1094	97
39.1168	85
39.1242	94
39.1316	97
39.1390	88
39.1464	92
39.1538	109
39.1612	81
39.1686	79
39.1760	90
39.1834	74
39.1908	99
39.1982	108
39.2056	81
39.2129	99
39.2203	124
39.2277	130
39.2351	124
39.2425	118
39.2499	129
39.2573	109
39.2647	164
39.2721	158
39.2795	178
39.2869	222
39.2943	227
39.3017	216
39.3091	208
39.3165	189
39.3239	186
39.3313	217
39.3387	165
39.3461	167
39.3535	173
39.3609	161
39.3682	182
39.3756	179
39.3830	228
39.3904	198
39.3978	233
39.4052	231
39.4126	222
39.4200	218
39.4274	249
39.4348	214
39.4422	203
39.4496	183
39.4570	194
39.4644	215
39.4718	207
39.4792	190
39.4866	222
39.4940	187
39.5014	189
39.5088	184
39.5162	199
39.5235	194
39.5309	201
39.5383	160
39.5457	170
39.5531	178
39.5605	182
39.5679	187
39.5753	177
39.5827	179
39.5901	172
39.5975	162
39.6049	153
39.6123	131
39.6197	119
39.6271	132
39.6345	121
39.6419	115
39.6493	121
39.6567	113
39.6641	114
39.6715	115
39.6788	108
39.6862	128
39.6936	99
39.7010	121
39.7084	94
39.7158	101
39.7232	111
39.7306	101
39.7380	98
39.7454	103
39.7528	104
39.7602	84
39.7676	112
39.7750	105
39.7824	115
39.7898	112
39.7972	94
39.8046	121
39.8120	115
39.8194	130
39.8268	134
39.8342	134
39.8415	117
39.8489	116
39.8563	126
39.8637	116
39.8711	121
39.8785	130
39.8859	111
39.8933	123
39.9007	116
39.9081	119
39.9155	105
39.9229	109
39.9303	108
39.9377	112
39.9451	127
39.9525	96
39.9599	95
39.9673	116
39.9747	108
39.9821	107
39.9895	101
39.9968	96
