2.0000	160
2.0074	152
2.0148	192
2.0222	170
2.0296	147
2.0370	179
2.0444	165
2.0518	174
2.0592	189
2.0666	183
2.0740	159
2.0813	177
2.0887	172
2.0961	181
2.1035	163
2.1109	188
2.1183	157
2.1257	177
2.1331	159
2.1405	173
2.1479	171
2.1553	180
2.1627	181
2.1701	165
2.1775	168
2.1849	188
2.1923	177
2.1997	199
2.2071	175
2.2145	159
2.2219	141
2.2293	154
2.2366	171
2.2440	169
2.2514	182
2.2588	150
2.2662	169
2.2736	174
2.2810	184
2.2884	158
2.2958	165
2.3032	154
2.3106	162
2.3180	161
2.3254	169
2.3328	171
2.3402	180
2.3476	175
2.3550	165
2.3624	164
2.3698	165
2.3772	172
2.3846	167
2.3919	186
2.3993	177
2.4067	176
2.4141	206
2.4215	155
2.4289	186
2.4363	152
2.4437	129
2.4511	157
2.4585	167
2.4659	165
2.4733	183
2.4807	172
2.4881	157
2.4955	164
2.5029	173
2.5103	155
2.5177	159
2.5251	175
2.5325	173
2.5399	193
2.5472	166
2.5546	181
2.5620	181
2.5694	167
2.5768	178
2.5842	175
2.5916	168
2.5990	155
2.6064	144
2.6138	177
2.6212	171
2.6286	162
2.6360	203
2.6434	173
2.6508	167
2.6582	151
2.6656	178
2.6730	182
2.6804	168
2.6878	175
2.6952	166
2.7025	175
2.7099	166
2.7173	163
2.7247	159
2.7321	152
2.7395	161
2.7469	170
2.7543	143
2.7617	179
2.7691	165
2.7765	162
2.7839	170
2.7913	161
2.7987	154
2.8061	157
2.8135	176
2.8209	163
2.8283	160
2.8357	156
2.8431	169
2.8505	171
2.8579	160
2.8652	173
2.8726	174
2.8800	165
2.8874	155
2.8948	155
2.9022	161
2.9096	180
2.9170	159
2.9244	160
2.9318	154
2.9392	166
2.9466	159
2.9540	160
2.9614	139
2.9688	167
2.9762	143
2.9836	164
2.9910	171
2.9984	183
3.0058	175
3.0132	149
3.0205	164
3.0279	143
3.0353	161
3.0427	172
3.0501	158
3.0575	158
3.0649	140
3.0723	158
3.0797	175
3.0871	170
3.0945	180
3.1019	161
3.1093	179
3.1167	156
3.1241	161
3.1315	167
3.1389	158
3.1463	160
3.1537	169
3.1611	159
3.1685	142
3.1758	177
3.1832	154
3.1906	147
3.1980	145
3.2054	150
3.2128	146
3.2202	143
3.2276	165
3.2350	156
3.2424	164
3.2498	157
3.2572	139
3.2646	152
3.2720	154
3.2794	167
3.2868	163
3.2942	172
3.3016	165
3.3090	170
3.3164	155
3.3238	153
3.3311	165
3.3385	162
3.3459	151
3.3533	124
3.3607	147
3.3681	156
3.3755	143
3.3829	147
3.3903	157
3.3977	186
3.4051	156
3.4125	141
3.4199	165
3.4273	162
3.4347	149
3.4421	168
3.4495	161
3.4569	149
3.4643	161
3.4717	155
3.4791	142
3.4864	166
3.4938	160
3.5012	144
3.5086	140
3.5160	167
3.5234	176
3.5308	163
3.5382	129
3.5456	152
3.5530	149
3.5604	155
3.5678	156
3.5752	147
3.5826	159
3.5900	165
3.5974	138
3.6048	136
3.6122	128
3.6196	145
3.6270	152
3.6344	138
3.6417	151
3.6491	144
3.6565	174
3.6639	139
3.6713	130
3.6787	133
3.6861	148
3.6935	152
3.7009	150
3.7083	151
3.7157	148
3.7231	141
3.7305	153
3.7379	141
3.7453	149
3.7527	132
3.7601	140
3.7675	125
3.7749	131
3.7823	141
3.7897	147
3.7970	151
3.8044	140
3.8118	152
3.8192	149
3.8266	142
3.8340	139
3.8414	148
3.8488	141
3.8562	148
3.8636	140
3.8710	143
3.8784	133
3.8858	141
3.8932	120
3.9006	151
3.9080	135
3.9154	159
3.9228	142
3.9302	119
3.9376	123
3.9450	130
3.9523	161
3.9597	127
3.9671	139
3.9745	126
3.9819	139
3.9893	124
3.9967	158
4.0041	126
4.0115	142
4.0189	138
4.0263	150
4.0337	141
4.0411	131
4.0485	120
4.0559	112
4.0633	109
4.0707	115
4.0781	151
4.0855	131
4.0929	120
4.1003	114
4.1076	131
4.1150	107
4.1224	113
4.1298	120
4.1372	140
4.1446	115
4.1520	132
4.1594	139
4.1668	123
4.1742	134
4.1816	141
4.1890	120
4.1964	128
4.2038	122
4.2112	110
4.2186	108
4.2260	139
4.2334	136
4.2408	116
4.2482	108
4.2556	128
4.2629	115
4.2703	113
4.2777	125
4.2851	112
4.2925	129
4.2999	134
4.3073	101
4.3147	120
4.3221	123
4.3295	113
4.3369	120
4.3443	100
4.3517	115
4.3591	110
4.3665	124
4.3739	128
4.3813	123
4.3887	112
4.3961	114
4.4035	112
4.4109	111
4.4183	115
4.4256	105
4.4330	96
4.4404	115
4.4478	102
4.4552	85
4.4626	115
4.4700	107
4.4774	111
4.4848	116
4.4922	103
4.4996	105
4.5070	98
4.5144	106
4.5218	113
4.5292	114
4.5366	96
4.5440	102
4.5514	125
4.5588	121
4.5662	121
4.5736	98
4.5809	120
4.5883	112
4.5957	135
4.6031	100
4.6105	96
4.6179	107
4.6253	119
4.6327	105
4.6401	104
4.6475	93
4.6549	104
4.6623	112
4.6697	84
4.6771	95
4.6845	116
4.6919	111
4.6993	103
4.7067	115
4.7141	91
4.7215	110
4.7289	123
4.7362	108
4.7436	107
4.7510	101
4.7584	89
4.7658	125
4.7732	87
4.7806	98
4.7880	102
4.7954	107
4.8028	97
4.8102	108
4.8176	96
4.8250	92
4.8324	105
4.8398	105
4.8472	99
4.8546	102
4.8620	100
4.8694	108
4.8768	103
4.8842	105
4.8915	94
4.8989	94
4.9063	113
4.9137	117
4.9211	113
4.9285	106
4.9359	102
4.9433	81
4.9507	93
4.9581	99
4.9655	100
4.9729	114
4.9803	93
4.9877	104
4.9951	81
5.0025	95
5.0099	90
5.0173	101
5.0247	93
5.0321	96
5.0395	102
5.0468	102
5.0542	100
5.0616	99
5.0690	113
5.0764	93
5.0838	107
5.0912	110
5.0986	100
5.1060	107
5.1134	87
5.1208	101
5.1282	85
5.1356	92
5.1430	108
5.1504	97
5.1578	96
5.1652	98
5.1726	89
5.1800	99
5.1874	94
5.1948	81
5.2021	91
5.2095	101
5.2169	107
5.2243	86
5.2317	101
5.2391	101
5.2465	91
5.2539	88
5.2613	105
5.2687	95
5.2761	95
5.2835	73
5.2909	84
5.2983	94
5.3057	88
5.3131	96
5.3205	84
5.3279	78
5.3353	93
5.3427	94
5.3501	93
5.3574	84
5.3648	94
5.3722	93
5.3796	91
5.3870	85
5.3944	97
5.4018	78
5.4092	82
5.4166	81
5.4240	103
5.4314	82
5.4388	87
5.4462	99
5.4536	88
5.4610	110
5.4684	89
5.4758	92
5.4832	98
5.4906	98
5.4980	81
5.5054	89
5.5127	103
5.5201	91
5.5275	82
5.5349	89
5.5423	90
5.5497	89
5.5571	81
5.5645	86
5.5719	107
5.5793	90
5.5867	105
5.5941	87
5.6015	84
5.6089	84
5.6163	81
5.6237	81
5.6311	85
5.6385	75
5.6459	80
5.6533	100
5.6607	91
5.6680	102
5.6754	75
5.6828	105
5.6902	88
5.6976	90
5.7050	95
5.7124	86
5.7198	79
5.7272	90
5.7346	97
5.7420	96
5.7494	81
5.7568	69
5.7642	83
5.7716	97
5.7790	78
5.7864	75
5.7938	90
5.8012	79
5.8086	78
5.8160	82
5.8233	100
5.8307	74
5.8381	82
5.8455	103
5.8529	72
5.8603	68
5.8677	85
5.8751	86
5.8825	88
5.8899	64
5.8973	80
5.9047	80
5.9121	92
5.9195	83
5.9269	100
5.9343	77
5.9417	87
5.9491	72
5.9565	83
5.9639	101
5.9713	86
5.9786	85
5.9860	81
5.9934	69
6.0008	83
6.0082	84
6.0156	93
6.0230	90
6.0304	98
6.0378	92
6.0452	88
6.0526	100
6.0600	79
6.0674	82
6.0748	86
6.0822	80
6.0896	74
6.0970	78
6.1044	76
6.1118	103
6.1192	68
6.1266	86
6.1340	105
6.1413	82
6.1487	91
6.1561	71
6.1635	77
6.1709	77
6.1783	72
6.1857	78
6.1931	83
6.2005	83
6.2079	76
6.2153	74
6.2227	85
6.2301	74
6.2375	80
6.2449	85
6.2523	74
6.2597	88
6.2671	86
6.2745	79
6.2819	82
6.2893	83
6.2966	89
6.3040	92
6.3114	80
6.3188	79
6.3262	96
6.3336	82
6.3410	85
6.3484	86
6.3558	66
6.3632	80
6.3706	60
6.3780	73
6.3854	62
6.3928	70
6.4002	91
6.4076	80
6.4150	85
6.4224	71
6.4298	78
6.4372	84
6.4446	97
6.4519	94
6.4593	82
6.4667	60
6.4741	79
6.4815	86
6.4889	89
6.4963	81
6.5037	85
6.5111	79
6.5185	67
6.5259	86
6.5333	76
6.5407	92
6.5481	90
6.5555	87
6.5629	78
6.5703	69
6.5777	90
6.5851	74
6.5925	81
6.5999	67
6.6072	77
6.6146	70
6.6220	85
6.6294	84
6.6368	97
6.6442	68
6.6516	76
6.6590	76
6.6664	68
6.6738	84
6.6812	85
6.6886	84
6.6960	74
6.7034	80
6.7108	79
6.7182	75
6.7256	87
6.7330	77
6.7404	87
6.7478	70
6.7552	85
6.7625	67
6.7699	74
6.7773	96
6.7847	67
6.7921	80
6.7995	99
6.8069	93
6.8143	85
6.8217	81
6.8291	75
6.8365	80
6.8439	73
6.8513	78
6.8587	86
6.8661	91
6.8735	88
6.8809	92
6.8883	80
6.8957	86
6.9031	92
6.9105	86
6.9178	80
6.9252	68
6.9326	70
6.9400	88
6.9474	66
6.9548	79
6.9622	87
6.9696	69
6.9770	60
6.9844	70
6.9918	68
6.9992	92
7.0066	88
7.0140	84
7.0214	64
7.0288	92
7.0362	80
7.0436	84
7.0510	91
7.0584	72
7.0658	81
7.0731	64
7.0805	73
7.0879	75
7.0953	86
7.1027	78
7.1101	75
7.1175	71
7.1249	69
7.1323	76
7.1397	72
7.1471	82
7.1545	87
7.1619	69
7.1693	84
7.1767	87
7.1841	82
7.1915	71
7.1989	63
7.2063	74
7.2137	66
7.2211	74
7.2284	63
7.2358	74
7.2432	78
7.2506	68
7.2580	64
7.2654	71
7.2728	82
7.2802	88
7.2876	76
7.2950	71
7.3024	85
7.3098	79
7.3172	59
7.3246	75
7.3320	85
7.3394	79
7.3468	72
7.3542	84
7.3616	63
7.3690	78
7.3764	81
7.3837	94
7.3911	77
7.3985	78
7.4059	73
7.4133	97
7.4207	65
7.4281	76
7.4355	73
7.4429	85
7.4503	83
7.4577	73
7.4651	74
7.4725	75
7.4799	65
7.4873	81
7.4947	72
7.5021	84
7.5095	66
7.5169	70
7.5243	83
7.5317	84
7.5390	78
7.5464	79
7.5538	63
7.5612	81
7.5686	61
7.5760	69
7.5834	76
7.5908	96
7.5982	80
7.6056	86
7.6130	70
7.6204	72
7.6278	58
7.6352	78
7.6426	81
7.6500	77
7.6574	84
7.6648	84
7.6722	59
7.6796	89
7.6870	90
7.6944	84
7.7017	85
7.7091	75
7.7165	82
7.7239	72
7.7313	60
7.7387	86
7.7461	72
7.7535	87
7.7609	78
7.7683	79
7.7757	76
7.7831	79
7.7905	74
7.7979	72
7.8053	81
7.8127	85
7.8201	78
7.8275	82
7.8349	68
7.8423	74
7.8497	75
7.8570	74
7.8644	81
7.8718	78
7.8792	68
7.8866	93
7.8940	70
7.9014	80
7.9088	75
7.9162	83
7.9236	86
7.9310	82
7.9384	81
7.9458	70
7.9532	96
7.9606	80
7.9680	87
7.9754	78
7.9828	68
7.9902	64
7.9976	89
8.0050	84
8.0123	83
8.0197	76
8.0271	67
8.0345	84
8.0419	88
8.0493	90
8.0567	82
8.0641	65
8.0715	74
8.0789	82
8.0863	82
8.0937	90
8.1011	88
8.1085	76
8.1159	88
8.1233	96
8.1307	81
8.1381	84
8.1455	85
8.1529	98
8.1603	77
8.1676	108
8.1750	103
8.1824	99
8.1898	90
8.1972	97
8.2046	100
8.2120	98
8.2194	110
8.2268	108
8.2342	125
8.2416	128
8.2490	123
8.2564	136
8.2638	150
8.2712	147
8.2786	143
8.2860	140
8.2934	146
8.3008	159
8.3082	145
8.3156	172
8.3229	183
8.3303	168
8.3377	189
8.3451	166
8.3525	186
8.3599	203
8.3673	257
8.3747	226
8.3821	232
8.3895	239
8.3969	272
8.4043	299
8.4117	320
8.4191	336
8.4265	386
8.4339	440
8.4413	507
8.4487	582
8.4561	649
8.4635	753
8.4709	867
8.4782	1121
8.4856	1360
8.4930	1783
8.5004	2420
8.5078	3149
8.5152	4098
8.5226	4851
8.5300	5429
8.5374	5523
8.5448	5118
8.5522	4501
8.5596	3721
8.5670	2874
8.5744	2269
8.5818	1669
8.5892	1370
8.5966	999
8.6040	826
8.6114	664
8.6188	554
8.6262	483
8.6335	383
8.6409	304
8.6483	293
8.6557	246
8.6631	239
8.6705	202
8.6779	182
8.6853	173
8.6927	170
8.7001	151
8.7075	166
8.7149	139
8.7223	130
8.7297	142
8.7371	161
8.7445	130
8.7519	144
8.7593	127
8.7667	122
8.7741	144
8.7815	125
8.7888	139
8.7962	132
8.8036	102
8.8110	135
8.8184	108
8.8258	125
8.8332	135
8.8406	84
8.8480	110
8.8554	115
8.8628	116
8.8702	117
8.8776	103
8.8850	113
8.8924	119
8.8998	111
8.9072	113
8.9146	97
8.9220	115
8.9294	102
8.9368	98
8.9441	99
8.9515	95
8.9589	101
8.9663	102
8.9737	119
8.9811	104
8.9885	120
8.9959	118
9.0033	98
9.0107	99
9.0181	94
9.0255	104
9.0329	112
9.0403	99
9.0477	118
9.0551	100
9.0625	115
9.0699	115
9.0773	114
9.0847	118
9.0921	98
9.0994	113
9.1068	93
9.1142	117
9.1216	93
9.1290	105
9.1364	109
9.1438	104
9.1512	106
9.1586	98
9.1660	112
9.1734	80
9.1808	108
9.1882	105
9.1956	84
9.2030	107
9.2104	114
9.2178	97
9.2252	100
9.2326	116
9.2400	107
9.2474	93
9.2548	83
9.2621	118
9.2695	94
9.2769	92
9.2843	110
9.2917	119
9.2991	92
9.3065	86
9.3139	106
9.3213	91
9.3287	92
9.3361	99
9.3435	93
9.3509	92
9.3583	96
9.3657	86
9.3731	106
9.3805	96
9.3879	77
9.3953	87
9.4027	101
9.4101	110
9.4174	79
9.4248	92
9.4322	98
9.4396	80
9.4470	98
9.4544	105
9.4618	111
9.4692	109
9.4766	98
9.4840	107
9.4914	110
9.4988	95
9.5062	81
9.5136	74
9.5210	81
9.5284	110
9.5358	106
9.5432	98
9.5506	110
9.5580	99
9.5654	106
9.5727	93
9.5801	87
9.5875	93
9.5949	97
9.6023	104
9.6097	91
9.6171	107
9.6245	95
9.6319	89
9.6393	85
9.6467	88
9.6541	86
9.6615	92
9.6689	90
9.6763	87
9.6837	99
9.6911	97
9.6985	101
9.7059	94
9.7133	86
9.7207	89
9.7280	87
9.7354	95
9.7428	96
9.7502	94
9.7576	86
9.7650	101
9.7724	98
9.7798	86
9.7872	95
9.7946	76
9.8020	96
9.8094	104
9.8168	93
9.8242	82
9.8316	95
9.8390	88
9.8464	81
9.8538	87
9.8612	81
9.8686	109
9.8760	104
9.8833	84
9.8907	71
9.8981	98
9.9055	79
9.9129	84
9.9203	84
9.9277	91
9.9351	91
9.9425	86
9.9499	81
9.9573	95
9.9647	84
9.9721	99
9.9795	99
9.9869	95
9.9943	101
10.0017	96
10.0091	79
10.0165	84
10.0239	74
10.0313	86
10.0386	84
10.0460	78
10.0534	94
10.0608	89
10.0682	98
10.0756	97
10.0830	81
10.0904	89
10.0978	93
10.1052	94
10.1126	69
10.1200	87
10.1274	105
10.1348	88
10.1422	80
10.1496	83
10.1570	92
10.1644	89
10.1718	91
10.1792	94
10.1866	88
10.1939	96
10.2013	74
10.2087	87
10.2161	85
10.2235	70
10.2309	90
10.2383	69
10.2457	82
10.2531	90
10.2605	87
10.2679	85
10.2753	68
10.2827	89
10.2901	96
10.2975	75
10.3049	81
10.3123	75
10.3197	95
10.3271	75
10.3345	96
10.3419	78
10.3492	70
10.3566	78
10.3640	91
10.3714	71
10.3788	92
10.3862	88
10.3936	86
10.4010	84
10.4084	69
10.4158	88
10.4232	99
10.4306	88
10.4380	78
10.4454	91
10.4528	73
10.4602	64
10.4676	76
10.4750	91
10.4824	89
10.4898	84
10.4972	76
10.5045	83
10.5119	87
10.5193	90
10.5267	96
10.5341	73
10.5415	115
10.5489	79
10.5563	97
10.5637	73
10.5711	107
10.5785	94
10.5859	98
10.5933	91
10.6007	92
10.6081	93
10.6155	91
10.6229	82
10.6303	105
10.6377	96
10.6451	86
10.6525	88
10.6598	83
10.6672	84
10.6746	92
10.6820	87
10.6894	91
10.6968	87
10.7042	80
10.7116	77
10.7190	97
10.7264	86
10.7338	76
10.7412	94
10.7486	97
10.7560	82
10.7634	81
10.7708	82
10.7782	78
10.7856	87
10.7930	79
10.8004	93
10.8078	100
10.8151	72
10.8225	83
10.8299	83
10.8373	88
10.8447	82
10.8521	77
10.8595	87
10.8669	84
10.8743	86
10.8817	72
10.8891	78
10.8965	72
10.9039	99
10.9113	95
10.9187	83
10.9261	92
10.9335	71
10.9409	94
10.9483	70
10.9557	72
10.9631	93
10.9705	92
10.9778	84
10.9852	83
10.9926	91
11.0000	84
11.0074	84
11.0148	105
11.0222	75
11.0296	72
11.0370	78
11.0444	74
11.0518	75
11.0592	81
11.0666	70
11.0740	97
11.0814	94
11.0888	96
11.0962	90
11.1036	102
11.1110	98
11.1184	81
11.1258	81
11.1331	81
11.1405	99
11.1479	84
11.1553	93
11.1627	93
11.1701	75
11.1775	98
11.1849	76
11.1923	86
11.1997	98
11.2071	91
11.2145	75
11.2219	90
11.2293	83
11.2367	85
11.2441	77
11.2515	86
11.2589	81
11.2663	86
11.2737	90
11.2811	90
11.2884	86
11.2958	81
11.3032	86
11.3106	98
11.3180	91
11.3254	100
11.3328	106
11.3402	89
11.3476	96
11.3550	102
11.3624	86
11.3698	103
11.3772	97
11.3846	98
11.3920	98
11.3994	86
11.4068	83
11.4142	92
11.4216	93
11.4290	89
11.4364	106
11.4437	82
11.4511	101
11.4585	80
11.4659	89
11.4733	91
11.4807	102
11.4881	105
11.4955	112
11.5029	92
11.5103	103
11.5177	106
11.5251	106
11.5325	95
11.5399	101
11.5473	90
11.5547	104
11.5621	115
11.5695	121
11.5769	133
11.5843	131
11.5917	146
11.5990	132
11.6064	143
11.6138	150
11.6212	171
11.6286	181
11.6360	239
11.6434	217
11.6508	233
11.6582	308
11.6656	350
11.6730	452
11.6804	493
11.6878	604
11.6952	770
11.7026	821
11.7100	1016
11.7174	1117
11.7248	1114
11.7322	1165
11.7396	1063
11.7470	1080
11.7543	967
11.7617	869
11.7691	801
11.7765	680
11.7839	622
11.7913	532
11.7987	488
11.8061	364
11.8135	331
11.8209	279
11.8283	253
11.8357	253
11.8431	178
11.8505	164
11.8579	161
11.8653	167
11.8727	144
11.8801	124
11.8875	120
11.8949	113
11.9023	119
11.9096	105
11.9170	114
11.9244	123
11.9318	117
11.9392	115
11.9466	110
11.9540	104
11.9614	110
11.9688	106
11.9762	128
11.9836	116
11.9910	95
11.9984	102
12.0058	99
12.0132	102
12.0206	126
12.0280	116
12.0354	129
12.0428	121
12.0502	104
12.0576	106
12.0649	118
12.0723	104
12.0797	103
12.0871	108
12.0945	109
12.1019	103
12.1093	125
12.1167	119
12.1241	125
12.1315	116
12.1389	116
12.1463	109
12.1537	123
12.1611	115
12.1685	142
12.1759	136
12.1833	130
12.1907	171
12.1981	116
12.2055	133
12.2129	133
12.2202	136
12.2276	129
12.2350	149
12.2424	166
12.2498	166
12.2572	185
12.2646	195
12.2720	225
12.2794	242
12.2868	260
12.2942	313
12.3016	309
12.3090	458
12.3164	512
12.3238	614
12.3312	797
12.3386	979
12.3460	1352
12.3534	1593
12.3608	1767
12.3682	2000
12.3755	1883
12.3829	1870
12.3903	1735
12.3977	1577
12.4051	1373
12.4125	1277
12.4199	1034
12.4273	801
12.4347	701
12.4421	616
12.4495	538
12.4569	483
12.4643	411
12.4717	363
12.4791	325
12.4865	301
12.4939	227
12.5013	199
12.5087	183
12.5161	170
12.5235	173
12.5309	158
12.5382	139
12.5456	147
12.5530	148
12.5604	123
12.5678	124
12.5752	141
12.5826	110
12.5900	133
12.5974	115
12.6048	113
12.6122	96
12.6196	114
12.6270	101
12.6344	125
12.6418	122
12.6492	104
12.6566	114
12.6640	106
12.6714	114
12.6788	122
12.6862	114
12.6935	98
12.7009	117
12.7083	95
12.7157	95
12.7231	95
12.7305	107
12.7379	107
12.7453	114
12.7527	116
12.7601	115
12.7675	111
12.7749	103
12.7823	95
12.7897	106
12.7971	107
12.8045	100
12.8119	95
12.8193	119
12.8267	101
12.8341	115
12.8415	100
12.8488	115
12.8562	102
12.8636	94
12.8710	112
12.8784	121
12.8858	100
12.8932	92
12.9006	125
12.9080	100
12.9154	130
12.9228	123
12.9302	103
12.9376	101
12.9450	112
12.9524	108
12.9598	126
12.9672	118
12.9746	114
12.9820	116
12.9894	121
12.9968	95
13.0041	102
13.0115	122
13.0189	105
13.0263	111
13.0337	108
13.0411	112
13.0485	103
13.0559	128
13.0633	132
13.0707	111
13.0781	140
13.0855	110
13.0929	131
13.1003	122
13.1077	146
13.1151	133
13.1225	142
13.1299	147
13.1373	152
13.1447	158
13.1521	176
13.1594	177
13.1668	183
13.1742	238
13.1816	268
13.1890	273
13.1964	337
13.2038	409
13.2112	504
13.2186	669
13.2260	783
13.2334	864
13.2408	902
13.2482	1052
13.2556	987
13.2630	962
13.2704	944
13.2778	933
13.2852	825
13.2926	733
13.3000	632
13.3074	608
13.3147	500
13.3221	467
13.3295	412
13.3369	357
13.3443	306
13.3517	283
13.3591	247
13.3665	234
13.3739	200
13.3813	204
13.3887	193
13.3961	167
13.4035	172
13.4109	128
13.4183	140
13.4257	140
13.4331	129
13.4405	126
13.4479	128
13.4553	131
13.4627	147
13.4700	105
13.4774	122
13.4848	138
13.4922	140
13.4996	127
13.5070	136
13.5144	138
13.5218	123
13.5292	138
13.5366	155
13.5440	144
13.5514	162
13.5588	166
13.5662	164
13.5736	182
13.5810	181
13.5884	217
13.5958	245
13.6032	284
13.6106	293
13.6180	350
13.6253	390
13.6327	499
13.6401	595
13.6475	733
13.6549	862
13.6623	1024
13.6697	1155
13.6771	1292
13.6845	1293
13.6919	1429
13.6993	1327
13.7067	1344
13.7141	1297
13.7215	1159
13.7289	1100
13.7363	1003
13.7437	849
13.7511	829
13.7585	697
13.7659	664
13.7733	576
13.7806	509
13.7880	475
13.7954	397
13.8028	357
13.8102	354
13.8176	286
13.8250	256
13.8324	233
13.8398	201
13.8472	172
13.8546	180
13.8620	185
13.8694	140
13.8768	141
13.8842	142
13.8916	123
13.8990	152
13.9064	121
13.9138	123
13.9212	131
13.9286	121
13.9359	116
13.9433	111
13.9507	100
13.9581	139
13.9655	84
13.9729	88
13.9803	143
13.9877	100
13.9951	110
14.0025	121
14.0099	119
14.0173	104
14.0247	112
14.0321	125
14.0395	113
14.0469	92
14.0543	114
14.0617	124
14.0691	95
14.0765	100
14.0839	99
14.0913	92
14.0986	95
14.1060	94
14.1134	116
14.1208	90
14.1282	125
14.1356	100
14.1430	101
14.1504	102
14.1578	109
14.1652	106
14.1726	98
14.1800	101
14.1874	97
14.1948	111
14.2022	114
14.2096	110
14.2170	94
14.2244	105
14.2318	102
14.2392	106
14.2466	108
14.2539	109
14.2613	95
14.2687	93
14.2761	107
14.2835	111
14.2909	104
14.2983	104
14.3057	132
14.3131	109
14.3205	114
14.3279	105
14.3353	113
14.3427	113
14.3501	126
14.3575	141
14.3649	138
14.3723	175
14.3797	151
14.3871	167
14.3945	159
14.4019	210
14.4092	209
14.4166	201
14.4240	239
14.4314	245
14.4388	222
14.4462	231
14.4536	225
14.4610	232
14.4684	233
14.4758	217
14.4832	170
14.4906	171
14.4980	178
14.5054	160
14.5128	148
14.5202	144
14.5276	127
14.5350	127
14.5424	128
14.5498	127
14.5572	104
14.5645	99
14.5719	99
14.5793	103
14.5867	93
14.5941	116
14.6015	107
14.6089	101
14.6163	105
14.6237	90
14.6311	83
14.6385	106
14.6459	94
14.6533	105
14.6607	99
14.6681	92
14.6755	84
14.6829	83
14.6903	90
14.6977	95
14.7051	95
14.7125	90
14.7198	89
14.7272	99
14.7346	107
14.7420	87
14.7494	96
14.7568	93
14.7642	89
14.7716	97
14.7790	93
14.7864	101
14.7938	95
14.8012	101
14.8086	91
14.8160	99
14.8234	86
14.8308	92
14.8382	101
14.8456	89
14.8530	95
14.8604	87
14.8678	77
14.8751	89
14.8825	89
14.8899	74
14.8973	87
14.9047	77
14.9121	75
14.9195	89
14.9269	92
14.9343	93
14.9417	105
14.9491	80
14.9565	109
14.9639	73
14.9713	88
14.9787	83
14.9861	101
14.9935	92
15.0009	104
15.0083	85
15.0157	87
15.0231	93
15.0304	80
15.0378	89
15.0452	75
15.0526	98
15.0600	105
15.0674	92
15.0748	113
15.0822	83
15.0896	92
15.0970	88
15.1044	93
15.1118	80
15.1192	97
15.1266	85
15.1340	75
15.1414	86
15.1488	66
15.1562	80
15.1636	81
15.1710	93
15.1784	92
15.1857	91
15.1931	99
15.2005	85
15.2079	76
15.2153	89
15.2227	74
15.2301	78
15.2375	79
15.2449	101
15.2523	90
15.2597	94
15.2671	88
15.2745	85
15.2819	85
15.2893	77
15.2967	94
15.3041	71
15.3115	70
15.3189	96
15.3263	90
15.3337	104
15.3410	69
15.3484	75
15.3558	86
15.3632	79
15.3706	90
15.3780	87
15.3854	114
15.3928	75
15.4002	87
15.4076	98
15.4150	88
15.4224	98
15.4298	99
15.4372	84
15.4446	92
15.4520	79
15.4594	95
15.4668	103
15.4742	87
15.4816	97
15.4890	99
15.4963	87
15.5037	115
15.5111	123
15.5185	106
15.5259	125
15.5333	112
15.5407	110
15.5481	128
15.5555	139
15.5629	118
15.5703	120
15.5777	133
15.5851	128
15.5925	131
15.5999	142
15.6073	114
15.6147	138
15.6221	114
15.6295	103
15.6369	120
15.6443	106
15.6516	87
15.6590	92
15.6664	109
15.6738	101
15.6812	114
15.6886	97
15.6960	87
15.7034	77
15.7108	87
15.7182	71
15.7256	72
15.7330	75
15.7404	102
15.7478	89
15.7552	107
15.7626	75
15.7700	93
15.7774	78
15.7848	79
15.7922	80
15.7996	74
15.8070	102
15.8143	78
15.8217	67
15.8291	83
15.8365	76
15.8439	73
15.8513	80
15.8587	84
15.8661	80
15.8735	84
15.8809	74
15.8883	79
15.8957	66
15.9031	91
15.9105	90
15.9179	93
15.9253	81
15.9327	93
15.9401	83
15.9475	79
15.9549	86
15.9623	60
15.9696	80
15.9770	91
15.9844	86
15.9918	89
15.9992	81
16.0066	88
16.0140	77
16.0214	76
16.0288	72
16.0362	87
16.0436	78
16.0510	67
16.0584	75
16.0658	73
16.0732	68
16.0806	75
16.0880	68
16.0954	91
16.1028	92
16.1102	69
16.1176	68
16.1249	88
16.1323	69
16.1397	83
16.1471	76
16.1545	74
16.1619	79
16.1693	63
16.1767	75
16.1841	97
16.1915	72
16.1989	81
16.2063	89
16.2137	83
16.2211	75
16.2285	89
16.2359	68
16.2433	78
16.2507	84
16.2581	78
16.2655	86
16.2729	87
16.2802	71
16.2876	86
16.2950	85
16.3024	79
16.3098	85
16.3172	86
16.3246	78
16.3320	78
16.3394	75
16.3468	86
16.3542	83
16.3616	88
16.3690	90
16.3764	81
16.3838	76
16.3912	80
16.3986	90
16.4060	83
16.4134	73
16.4208	88
16.4282	67
16.4355	81
16.4429	95
16.4503	76
16.4577	104
16.4651	88
16.4725	96
16.4799	102
16.4873	92
16.4947	80
16.5021	85
16.5095	90
16.5169	80
16.5243	101
16.5317	90
16.5391	75
16.5465	85
16.5539	90
16.5613	104
16.5687	102
16.5761	103
16.5835	99
16.5908	90
16.5982	80
16.6056	97
16.6130	81
16.6204	76
16.6278	99
16.6352	77
16.6426	85
16.6500	100
16.6574	116
16.6648	123
16.6722	92
16.6796	107
16.6870	114
16.6944	108
16.7018	109
16.7092	122
16.7166	120
16.7240	140
16.7314	154
16.7388	149
16.7461	144
16.7535	187
16.7609	213
16.7683	220
16.7757	227
16.7831	238
16.7905	292
16.7979	331
16.8053	328
16.8127	424
16.8201	424
16.8275	474
16.8349	499
16.8423	520
16.8497	537
16.8571	550
16.8645	565
16.8719	534
16.8793	544
16.8867	553
16.8941	471
16.9014	475
16.9088	470
16.9162	444
16.9236	428
16.9310	445
16.9384	397
16.9458	397
16.9532	359
16.9606	350
16.9680	380
16.9754	403
16.9828	471
16.9902	553
16.9976	725
17.0050	933
17.0124	1110
17.0198	1437
17.0272	1557
17.0346	1703
17.0420	1549
17.0494	1448
17.0567	1372
17.0641	1292
17.0715	1237
17.0789	1118
17.0863	1025
17.0937	793
17.1011	751
17.1085	588
17.1159	511
17.1233	434
17.1307	371
17.1381	336
17.1455	288
17.1529	304
17.1603	243
17.1677	237
17.1751	202
17.1825	185
17.1899	170
17.1973	164
17.2047	161
17.2120	116
17.2194	154
17.2268	123
17.2342	126
17.2416	126
17.2490	125
17.2564	112
17.2638	97
17.2712	130
17.2786	106
17.2860	92
17.2934	104
17.3008	87
17.3082	97
17.3156	99
17.3230	110
17.3304	103
17.3378	111
17.3452	106
17.3526	106
17.3600	88
17.3674	81
17.3747	98
17.3821	101
17.3895	85
17.3969	82
17.4043	87
17.4117	105
17.4191	95
17.4265	91
17.4339	86
17.4413	91
17.4487	102
17.4561	76
17.4635	91
17.4709	82
17.4783	84
17.4857	86
17.4931	85
17.5005	77
17.5079	96
17.5153	111
17.5227	100
17.5300	91
17.5374	68
17.5448	101
17.5522	93
17.5596	79
17.5670	89
17.5744	102
17.5818	91
17.5892	81
17.5966	99
17.6040	108
17.6114	87
17.6188	101
17.6262	95
17.6336	93
17.6410	89
17.6484	89
17.6558	102
17.6632	95
17.6706	88
17.6780	114
17.6853	110
17.6927	98
17.7001	108
17.7075	119
17.7149	116
17.7223	147
17.7297	127
17.7371	126
17.7445	158
17.7519	166
17.7593	190
17.7667	216
17.7741	276
17.7815	271
17.7889	304
17.7963	370
17.8037	448
17.8111	466
17.8185	534
17.8259	512
17.8333	580
17.8406	657
17.8480	726
17.8554	743
17.8628	807
17.8702	761
17.8776	742
17.8850	830
17.8924	767
17.8998	763
17.9072	767
17.9146	726
17.9220	698
17.9294	638
17.9368	573
17.9442	542
17.9516	494
17.9590	446
17.9664	427
17.9738	405
17.9812	351
17.9886	318
17.9959	308
18.0033	291
18.0107	272
18.0181	216
18.0255	189
18.0329	171
18.0403	169
18.0477	168
18.0551	129
18.0625	131
18.0699	115
18.0773	130
18.0847	122
18.0921	124
18.0995	118
18.1069	117
18.1143	79
18.1217	112
18.1291	94
18.1365	106
18.1439	95
18.1512	86
18.1586	101
18.1660	86
18.1734	94
18.1808	104
18.1882	93
18.1956	107
18.2030	99
18.2104	110
18.2178	87
18.2252	87
18.2326	96
18.2400	94
18.2474	89
18.2548	86
18.2622	96
18.2696	98
18.2770	105
18.2844	100
18.2918	86
18.2992	104
18.3065	74
18.3139	105
18.3213	85
18.3287	97
18.3361	103
18.3435	108
18.3509	107
18.3583	90
18.3657	90
18.3731	119
18.3805	100
18.3879	104
18.3953	105
18.4027	88
18.4101	113
18.4175	106
18.4249	108
18.4323	117
18.4397	126
18.4471	144
18.4545	143
18.4618	122
18.4692	161
18.4766	158
18.4840	166
18.4914	198
18.4988	231
18.5062	276
18.5136	315
18.5210	381
18.5284	482
18.5358	499
18.5432	630
18.5506	771
18.5580	863
18.5654	940
18.5728	1002
18.5802	1110
18.5876	1178
18.5950	1179
18.6024	1215
18.6098	1267
18.6171	1311
18.6245	1356
18.6319	1276
18.6393	1225
18.6467	1106
18.6541	1102
18.6615	1021
18.6689	935
18.6763	867
18.6837	801
18.6911	703
18.6985	624
18.7059	551
18.7133	511
18.7207	413
18.7281	372
18.7355	339
18.7429	298
18.7503	271
18.7577	226
18.7651	226
18.7724	169
18.7798	204
18.7872	186
18.7946	144
18.8020	161
18.8094	112
18.8168	111
18.8242	128
18.8316	123
18.8390	105
18.8464	135
18.8538	112
18.8612	106
18.8686	89
18.8760	102
18.8834	99
18.8908	105
18.8982	99
18.9056	103
18.9130	96
18.9204	107
18.9278	91
18.9351	101
18.9425	95
18.9499	93
18.9573	90
18.9647	83
18.9721	85
18.9795	77
18.9869	95
18.9943	86
19.0017	79
19.0091	99
19.0165	84
19.0239	99
19.0313	92
19.0387	85
19.0461	73
19.0535	73
19.0609	85
19.0683	91
19.0757	88
19.0831	96
19.0904	81
19.0978	84
19.1052	78
19.1126	86
19.1200	94
19.1274	88
19.1348	74
19.1422	77
19.1496	89
19.1570	79
19.1644	76
19.1718	77
19.1792	89
19.1866	87
19.1940	91
19.2014	76
19.2088	79
19.2162	77
19.2236	84
19.2310	76
19.2384	85
19.2457	73
19.2531	87
19.2605	64
19.2679	80
19.2753	76
19.2827	83
19.2901	93
19.2975	77
19.3049	88
19.3123	92
19.3197	84
19.3271	99
19.3345	69
19.3419	86
19.3493	95
19.3567	90
19.3641	75
19.3715	92
19.3789	90
19.3863	103
19.3937	109
19.4010	116
19.4084	132
19.4158	123
19.4232	137
19.4306	151
19.4380	151
19.4454	168
19.4528	185
19.4602	189
19.4676	202
19.4750	221
19.4824	229
19.4898	224
19.4972	231
19.5046	219
19.5120	215
19.5194	208
19.5268	210
19.5342	200
19.5416	187
19.5490	162
19.5563	171
19.5637	161
19.5711	142
19.5785	134
19.5859	111
19.5933	121
19.6007	119
19.6081	121
19.6155	95
19.6229	106
19.6303	99
19.6377	84
19.6451	85
19.6525	82
19.6599	96
19.6673	76
19.6747	80
19.6821	87
19.6895	75
19.6969	81
19.7043	82
19.7116	99
19.7190	70
19.7264	80
19.7338	70
19.7412	82
19.7486	94
19.7560	80
19.7634	83
19.7708	84
19.7782	64
19.7856	64
19.7930	74
19.8004	86
19.8078	81
19.8152	85
19.8226	105
19.8300	70
19.8374	99
19.8448	71
19.8522	82
19.8596	82
19.8669	75
19.8743	86
19.8817	86
19.8891	91
19.8965	86
19.9039	83
19.9113	109
19.9187	89
19.9261	80
19.9335	102
19.9409	88
19.9483	85
19.9557	85
19.9631	95
19.9705	78
19.9779	81
19.9853	83
19.9927	86
20.0001	95
20.0075	85
20.0149	86
20.0222	81
20.0296	84
20.0370	101
20.0444	103
20.0518	81
20.0592	81
20.0666	89
20.0740	80
20.0814	71
20.0888	89
20.0962	99
20.1036	82
20.1110	65
20.1184	88
20.1258	81
20.1332	90
20.1406	80
20.1480	72
20.1554	82
20.1628	86
20.1702	71
20.1775	83
20.1849	95
20.1923	76
20.1997	81
20.2071	99
20.2145	88
20.2219	90
20.2293	83
20.2367	94
20.2441	92
20.2515	95
20.2589	82
20.2663	87
20.2737	95
20.2811	81
20.2885	86
20.2959	85
20.3033	81
20.3107	100
20.3181	108
20.3255	83
20.3328	98
20.3402	101
20.3476	101
20.3550	95
20.3624	98
20.3698	98
20.3772	87
20.3846	111
20.3920	100
20.3994	103
20.4068	123
20.4142	115
20.4216	103
20.4290	159
20.4364	175
20.4438	162
20.4512	222
20.4586	240
20.4660	308
20.4734	330
20.4808	344
20.4882	451
20.4955	532
20.5029	626
20.5103	730
20.5177	803
20.5251	935
20.5325	957
20.5399	1046
20.5473	979
20.5547	1052
20.5621	1088
20.5695	1000
20.5769	1073
20.5843	1006
20.5917	1036
20.5991	976
20.6065	885
20.6139	935
20.6213	801
20.6287	748
20.6361	696
20.6435	647
20.6508	555
20.6582	513
20.6656	451
20.6730	402
20.6804	378
20.6878	353
20.6952	292
20.7026	288
20.7100	238
20.7174	214
20.7248	218
20.7322	178
20.7396	195
20.7470	160
20.7544	156
20.7618	147
20.7692	142
20.7766	124
20.7840	125
20.7914	123
20.7988	105
20.8061	112
20.8135	112
20.8209	101
20.8283	133
20.8357	117
20.8431	131
20.8505	122
20.8579	119
20.8653	114
20.8727	114
20.8801	127
20.8875	132
20.8949	152
20.9023	151
20.9097	176
20.9171	185
20.9245	227
20.9319	248
20.9393	281
20.9467	302
20.9541	325
20.9614	357
20.9688	369
20.9762	369
20.9836	353
20.9910	371
20.9984	354
21.0058	367
21.0132	381
21.0206	341
21.0280	331
21.0354	317
21.0428	297
21.0502	286
21.0576	288
21.0650	262
21.0724	214
21.0798	215
21.0872	215
21.0946	176
21.1020	154
21.1094	166
21.1167	180
21.1241	138
21.1315	136
21.1389	112
21.1463	127
21.1537	131
21.1611	119
21.1685	110
21.1759	131
21.1833	114
21.1907	111
21.1981	131
21.2055	115
21.2129	94
21.2203	109
21.2277	101
21.2351	121
21.2425	137
21.2499	132
21.2573	141
21.2647	129
21.2720	125
21.2794	105
21.2868	104
21.2942	154
21.3016	145
21.3090	117
21.3164	130
21.3238	128
21.3312	142
21.3386	118
21.3460	156
21.3534	150
21.3608	137
21.3682	129
21.3756	149
21.3830	144
21.3904	129
21.3978	159
21.4052	159
21.4126	151
21.4200	178
21.4273	192
21.4347	194
21.4421	222
21.4495	243
21.4569	292
21.4643	350
21.4717	379
21.4791	506
21.4865	557
21.4939	688
21.5013	833
21.5087	961
21.5161	954
21.5235	1005
21.5309	1007
21.5383	931
21.5457	917
21.5531	928
21.5605	951
21.5679	873
21.5753	881
21.5826	825
21.5900	767
21.5974	678
21.6048	600
21.6122	554
21.6196	499
21.6270	461
21.6344	427
21.6418	403
21.6492	371
21.6566	388
21.6640	372
21.6714	359
21.6788	373
21.6862	350
21.6936	385
21.7010	376
21.7084	404
21.7158	403
21.7232	403
21.7306	428
21.7379	422
21.7453	415
21.7527	425
21.7601	472
21.7675	494
21.7749	409
21.7823	413
21.7897	413
21.7971	430
21.8045	399
21.8119	415
21.8193	378
21.8267	399
21.8341	382
21.8415	387
21.8489	346
21.8563	406
21.8637	401
21.8711	461
21.8785	470
21.8859	507
21.8932	619
21.9006	667
21.9080	908
21.9154	1077
21.9228	1376
21.9302	1743
21.9376	2073
21.9450	2603
21.9524	3269
21.9598	3787
21.9672	4129
21.9746	4337
21.9820	4590
21.9894	4753
21.9968	4876
22.0042	4847
22.0116	4821
22.0190	4588
22.0264	4216
22.0338	3737
22.0412	3454
22.0485	3215
22.0559	2959
22.0633	2789
22.0707	2448
22.0781	2081
22.0855	1752
22.0929	1516
22.1003	1283
22.1077	1130
22.1151	982
22.1225	847
22.1299	829
22.1373	655
22.1447	625
22.1521	532
22.1595	484
22.1669	433
22.1743	385
22.1817	272
22.1891	306
22.1965	281
22.2039	295
22.2112	221
22.2186	233
22.2260	211
22.2334	212
22.2408	195
22.2482	189
22.2556	167
22.2630	174
22.2704	163
22.2778	181
22.2852	158
22.2926	161
22.3000	161
22.3074	160
22.3148	169
22.3222	151
22.3296	155
22.3370	154
22.3444	159
22.3518	140
22.3592	132
22.3665	142
22.3739	130
22.3813	140
22.3887	140
22.3961	128
22.4035	132
22.4109	149
22.4183	139
22.4257	129
22.4331	112
22.4405	138
22.4479	119
22.4553	128
22.4627	135
22.4701	127
22.4775	137
22.4849	139
22.4923	137
22.4997	128
22.5071	135
22.5145	151
22.5218	124
22.5292	131
22.5366	155
22.5440	138
22.5514	125
22.5588	129
22.5662	120
22.5736	120
22.5810	123
22.5884	135
22.5958	148
22.6032	100
22.6106	136
22.6180	122
22.6254	115
22.6328	133
22.6402	137
22.6476	121
22.6550	117
22.6624	126
22.6698	134
22.6771	139
22.6845	153
22.6919	165
22.6993	152
22.7067	187
22.7141	204
22.7215	228
22.7289	299
22.7363	302
22.7437	370
22.7511	423
22.7585	440
22.7659	447
22.7733	392
22.7807	481
22.7881	466
22.7955	463
22.8029	526
22.8103	486
22.8177	463
22.8251	446
22.8324	438
22.8398	435
22.8472	376
22.8546	365
22.8620	324
22.8694	334
22.8768	307
22.8842	303
22.8916	232
22.8990	208
22.9064	232
22.9138	237
22.9212	205
22.9286	173
22.9360	167
22.9434	170
22.9508	146
22.9582	154
22.9656	136
22.9730	127
22.9804	138
22.9877	138
22.9951	118
23.0025	111
23.0099	134
23.0173	138
23.0247	133
23.0321	147
23.0395	132
23.0469	135
23.0543	110
23.0617	123
23.0691	112
23.0765	96
23.0839	106
23.0913	103
23.0987	112
23.1061	116
23.1135	115
23.1209	108
23.1283	94
23.1357	123
23.1430	101
23.1504	130
23.1578	119
23.1652	98
23.1726	104
23.1800	123
23.1874	114
23.1948	91
23.2022	99
23.2096	110
23.2170	104
23.2244	113
23.2318	118
23.2392	100
23.2466	119
23.2540	106
23.2614	105
23.2688	94
23.2762	114
23.2836	110
23.2910	111
23.2983	117
23.3057	119
23.3131	119
23.3205	131
23.3279	114
23.3353	99
23.3427	120
23.3501	120
23.3575	111
23.3649	114
23.3723	120
23.3797	121
23.3871	113
23.3945	129
23.4019	133
23.4093	129
23.4167	163
23.4241	189
23.4315	201
23.4389	232
23.4463	249
23.4536	300
23.4610	339
23.4684	439
23.4758	434
23.4832	511
23.4906	456
23.4980	428
23.5054	411
23.5128	426
23.5202	387
23.5276	421
23.5350	389
23.5424	414
23.5498	365
23.5572	306
23.5646	310
23.5720	297
23.5794	243
23.5868	226
23.5942	208
23.6016	218
23.6089	217
23.6163	168
23.6237	173
23.6311	148
23.6385	156
23.6459	163
23.6533	134
23.6607	138
23.6681	111
23.6755	138
23.6829	155
23.6903	140
23.6977	108
23.7051	110
23.7125	133
23.7199	119
23.7273	107
23.7347	122
23.7421	113
23.7495	110
23.7569	99
23.7643	98
23.7716	124
23.7790	111
23.7864	107
23.7938	108
23.8012	114
23.8086	111
23.8160	113
23.8234	138
23.8308	112
23.8382	128
23.8456	124
23.8530	124
23.8604	139
23.8678	153
23.8752	149
23.8826	154
23.8900	175
23.8974	174
23.9048	183
23.9122	173
23.9196	259
23.9269	234
23.9343	265
23.9417	304
23.9491	341
23.9565	422
23.9639	425
23.9713	513
23.9787	574
23.9861	604
23.9935	638
24.0009	654
24.0083	681
24.0157	677
24.0231	693
24.0305	678
24.0379	734
24.0453	705
24.0527	681
24.0601	656
24.0675	659
24.0749	631
24.0822	576
24.0896	525
24.0970	524
24.1044	447
24.1118	450
24.1192	434
24.1266	387
24.1340	374
24.1414	332
24.1488	329
24.1562	291
24.1636	247
24.1710	226
24.1784	215
24.1858	182
24.1932	191
24.2006	170
24.2080	154
24.2154	176
24.2228	172
24.2302	178
24.2375	178
24.2449	173
24.2523	170
24.2597	189
24.2671	216
24.2745	186
24.2819	227
24.2893	242
24.2967	263
24.3041	240
24.3115	249
24.3189	260
24.3263	265
24.3337	278
24.3411	343
24.3485	329
24.3559	383
24.3633	358
24.3707	424
24.3781	464
24.3855	481
24.3928	497
24.4002	484
24.4076	508
24.4150	483
24.4224	513
24.4298	516
24.4372	567
24.4446	517
24.4520	563
24.4594	507
24.4668	528
24.4742	490
24.4816	476
24.4890	396
24.4964	429
24.5038	391
24.5112	360
24.5186	347
24.5260	322
24.5334	279
24.5408	282
24.5481	236
24.5555	249
24.5629	183
24.5703	194
24.5777	189
24.5851	164
24.5925	154
24.5999	144
24.6073	143
24.6147	145
24.6221	133
24.6295	116
24.6369	141
24.6443	136
24.6517	130
24.6591	103
24.6665	138
24.6739	100
24.6813	119
24.6887	133
24.6961	118
24.7034	123
24.7108	142
24.7182	110
24.7256	126
24.7330	137
24.7404	135
24.7478	152
24.7552	165
24.7626	175
24.7700	206
24.7774	204
24.7848	193
24.7922	230
24.7996	271
24.8070	252
24.8144	228
24.8218	227
24.8292	238
24.8366	250
24.8440	233
24.8514	249
24.8587	233
24.8661	204
24.8735	218
24.8809	184
24.8883	178
24.8957	146
24.9031	176
24.9105	154
24.9179	158
24.9253	166
24.9327	150
24.9401	120
24.9475	121
24.9549	131
24.9623	139
24.9697	128
24.9771	148
24.9845	108
24.9919	136
24.9993	103
25.0067	104
25.0140	119
25.0214	128
25.0288	122
25.0362	122
25.0436	114
25.0510	124
25.0584	109
25.0658	98
25.0732	131
25.0806	114
25.0880	99
25.0954	128
25.1028	131
25.1102	112
25.1176	107
25.1250	134
25.1324	113
25.1398	102
25.1472	115
25.1546	94
25.1620	82
25.1693	107
25.1767	106
25.1841	111
25.1915	116
25.1989	121
25.2063	132
25.2137	103
25.2211	121
25.2285	111
25.2359	104
25.2433	131
25.2507	111
25.2581	108
25.2655	106
25.2729	127
25.2803	107
25.2877	120
25.2951	91
25.3025	118
25.3099	110
25.3173	143
25.3247	133
25.3320	138
25.3394	149
25.3468	130
25.3542	130
25.3616	125
25.3690	149
25.3764	131
25.3838	134
25.3912	150
25.3986	156
25.4060	186
25.4134	165
25.4208	227
25.4282	220
25.4356	234
25.4430	293
25.4504	348
25.4578	431
25.4652	463
25.4726	536
25.4800	632
25.4873	636
25.4947	669
25.5021	716
25.5095	704
25.5169	763
25.5243	674
25.5317	745
25.5391	744
25.5465	784
25.5539	746
25.5613	754
25.5687	763
25.5761	718
25.5835	760
25.5909	821
25.5983	991
25.6057	992
25.6131	1149
25.6205	1242
25.6279	1243
25.6353	1244
25.6426	1089
25.6500	1010
25.6574	893
25.6648	805
25.6722	824
25.6796	831
25.6870	799
25.6944	772
25.7018	720
25.7092	658
25.7166	574
25.7240	439
25.7314	398
25.7388	359
25.7462	352
25.7536	308
25.7610	313
25.7684	265
25.7758	273
25.7832	258
25.7906	228
25.7979	242
25.8053	228
25.8127	234
25.8201	209
25.8275	248
25.8349	273
25.8423	279
25.8497	272
25.8571	274
25.8645	276
25.8719	337
25.8793	295
25.8867	300
25.8941	299
25.9015	313
25.9089	298
25.9163	276
25.9237	283
25.9311	287
25.9385	303
25.9459	287
25.9532	304
25.9606	279
25.9680	265
25.9754	215
25.9828	228
25.9902	218
25.9976	192
26.0050	213
26.0124	192
26.0198	177
26.0272	168
26.0346	172
26.0420	175
26.0494	162
26.0568	174
26.0642	149
26.0716	153
26.0790	141
26.0864	143
26.0938	125
26.1012	115
26.1085	118
26.1159	127
26.1233	119
26.1307	106
26.1381	124
26.1455	112
26.1529	142
26.1603	103
26.1677	138
26.1751	117
26.1825	125
26.1899	112
26.1973	126
26.2047	128
26.2121	133
26.2195	130
26.2269	133
26.2343	107
26.2417	145
26.2491	146
26.2565	137
26.2638	117
26.2712	135
26.2786	138
26.2860	130
26.2934	116
26.3008	134
26.3082	128
26.3156	137
26.3230	133
26.3304	156
26.3378	123
26.3452	162
26.3526	139
26.3600	151
26.3674	185
26.3748	158
26.3822	171
26.3896	174
26.3970	175
26.4044	235
26.4118	241
26.4191	225
26.4265	282
26.4339	288
26.4413	340
26.4487	354
26.4561	415
26.4635	454
26.4709	511
26.4783	558
26.4857	708
26.4931	851
26.5005	1031
26.5079	1119
26.5153	1287
26.5227	1507
26.5301	1738
26.5375	1723
26.5449	1750
26.5523	1774
26.5597	1746
26.5671	1750
26.5744	1705
26.5818	1654
26.5892	1686
26.5966	1698
26.6040	1709
26.6114	1575
26.6188	1480
26.6262	1377
26.6336	1339
26.6410	1155
26.6484	991
26.6558	999
26.6632	861
26.6706	765
26.6780	708
26.6854	597
26.6928	535
26.7002	503
26.7076	497
26.7150	392
26.7224	359
26.7297	345
26.7371	299
26.7445	289
26.7519	253
26.7593	227
26.7667	191
26.7741	190
26.7815	204
26.7889	183
26.7963	190
26.8037	174
26.8111	153
26.8185	162
26.8259	131
26.8333	144
26.8407	130
26.8481	146
26.8555	155
26.8629	139
26.8703	149
26.8777	126
26.8850	124
26.8924	135
26.8998	129
26.9072	146
26.9146	121
26.9220	139
26.9294	119
26.9368	126
26.9442	117
26.9516	122
26.9590	115
26.9664	126
26.9738	142
26.9812	101
26.9886	94
26.9960	121
27.0034	105
27.0108	109
27.0182	127
27.0256	115
27.0330	137
27.0404	111
27.0477	123
27.0551	119
27.0625	108
27.0699	113
27.0773	102
27.0847	100
27.0921	124
27.0995	122
27.1069	112
27.1143	122
27.1217	138
27.1291	129
27.1365	106
27.1439	116
27.1513	127
27.1587	102
27.1661	114
27.1735	88
27.1809	114
27.1883	115
27.1957	120
27.2030	116
27.2104	123
27.2178	95
27.2252	120
27.2326	108
27.2400	115
27.2474	105
27.2548	123
27.2622	106
27.2696	133
27.2770	127
27.2844	122
27.2918	115
27.2992	122
27.3066	117
27.3140	139
27.3214	126
27.3288	132
27.3362	137
27.3436	141
27.3510	156
27.3583	179
27.3657	147
27.3731	185
27.3805	184
27.3879	175
27.3953	173
27.4027	227
27.4101	277
27.4175	284
27.4249	332
27.4323	379
27.4397	439
27.4471	479
27.4545	568
27.4619	708
27.4693	749
27.4767	757
27.4841	817
27.4915	811
27.4989	837
27.5063	762
27.5136	783
27.5210	727
27.5284	803
27.5358	692
27.5432	734
27.5506	709
27.5580	632
27.5654	591
27.5728	566
27.5802	582
27.5876	532
27.5950	479
27.6024	472
27.6098	398
27.6172	432
27.6246	360
27.6320	353
27.6394	304
27.6468	286
27.6542	276
27.6616	250
27.6689	284
27.6763	256
27.6837	254
27.6911	211
27.6985	213
27.7059	196
27.7133	188
27.7207	164
27.7281	164
27.7355	161
27.7429	178
27.7503	151
27.7577	151
27.7651	155
27.7725	159
27.7799	113
27.7873	141
27.7947	140
27.8021	114
27.8095	116
27.8169	111
27.8242	113
27.8316	98
27.8390	118
27.8464	92
27.8538	108
27.8612	118
27.8686	115
27.8760	123
27.8834	122
27.8908	94
27.8982	104
27.9056	108
27.9130	109
27.9204	86
27.9278	112
27.9352	110
27.9426	117
27.9500	103
27.9574	95
27.9648	95
27.9722	107
27.9795	104
27.9869	96
27.9943	104
28.0017	117
28.0091	110
28.0165	100
28.0239	112
28.0313	100
28.0387	113
28.0461	120
28.0535	90
28.0609	98
28.0683	106
28.0757	104
28.0831	107
28.0905	107
28.0979	101
28.1053	114
28.1127	94
28.1201	104
28.1275	104
28.1348	121
28.1422	92
28.1496	96
28.1570	116
28.1644	95
28.1718	114
28.1792	106
28.1866	102
28.1940	102
28.2014	113
28.2088	86
28.2162	120
28.2236	113
28.2310	105
28.2384	114
28.2458	112
28.2532	115
28.2606	103
28.2680	110
28.2754	120
28.2828	110
28.2901	109
28.2975	109
28.3049	122
28.3123	122
28.3197	144
28.3271	122
28.3345	146
28.3419	142
28.3493	152
28.3567	133
28.3641	153
28.3715	170
28.3789	193
28.3863	192
28.3937	220
28.4011	245
28.4085	272
28.4159	323
28.4233	362
28.4307	454
28.4381	438
28.4454	507
28.4528	534
28.4602	539
28.4676	584
28.4750	625
28.4824	567
28.4898	605
28.4972	588
28.5046	580
28.5120	543
28.5194	598
28.5268	647
28.5342	557
28.5416	551
28.5490	529
28.5564	500
28.5638	504
28.5712	424
28.5786	380
28.5860	369
28.5934	339
28.6008	367
28.6081	322
28.6155	313
28.6229	260
28.6303	250
28.6377	227
28.6451	205
28.6525	191
28.6599	175
28.6673	154
28.6747	177
28.6821	139
28.6895	164
28.6969	130
28.7043	147
28.7117	118
28.7191	144
28.7265	121
28.7339	111
28.7413	118
28.7487	119
28.7561	107
28.7634	88
28.7708	135
28.7782	131
28.7856	123
28.7930	122
28.8004	145
28.8078	101
28.8152	117
28.8226	121
28.8300	125
28.8374	111
28.8448	116
28.8522	142
28.8596	137
28.8670	122
28.8744	136
28.8818	152
28.8892	138
28.8966	153
28.9040	156
28.9114	171
28.9187	175
28.9261	168
28.9335	183
28.9409	176
28.9483	172
28.9557	195
28.9631	204
28.9705	212
28.9779	222
28.9853	285
28.9927	293
29.0001	311
29.0075	318
29.0149	340
29.0223	376
29.0297	360
29.0371	357
29.0445	348
29.0519	354
29.0593	347
29.0667	322
29.0740	351
29.0814	367
29.0888	340
29.0962	341
29.1036	316
29.1110	302
29.1184	290
29.1258	265
29.1332	261
29.1406	254
29.1480	227
29.1554	233
29.1628	199
29.1702	233
29.1776	204
29.1850	186
29.1924	149
29.1998	131
29.2072	161
29.2146	135
29.2220	117
29.2293	100
29.2367	127
29.2441	137
29.2515	111
29.2589	149
29.2663	99
29.2737	112
29.2811	104
29.2885	78
29.2959	91
29.3033	101
29.3107	99
29.3181	100
29.3255	106
29.3329	107
29.3403	92
29.3477	98
29.3551	91
29.3625	86
29.3699	85
29.3773	95
29.3846	89
29.3920	79
29.3994	117
29.4068	95
29.4142	92
29.4216	87
29.4290	95
29.4364	100
29.4438	100
29.4512	95
29.4586	81
29.4660	86
29.4734	94
29.4808	90
29.4882	87
29.4956	89
29.5030	85
29.5104	105
29.5178	88
29.5252	99
29.5326	103
29.5399	95
29.5473	100
29.5547	110
29.5621	92
29.5695	114
29.5769	95
29.5843	104
29.5917	98
29.5991	124
29.6065	122
29.6139	108
29.6213	118
29.6287	101
29.6361	109
29.6435	106
29.6509	114
29.6583	105
29.6657	92
29.6731	117
29.6805	101
29.6879	90
29.6952	96
29.7026	109
29.7100	103
29.7174	100
29.7248	93
29.7322	94
29.7396	99
29.7470	94
29.7544	75
29.7618	85
29.7692	83
29.7766	86
29.7840	92
29.7914	95
29.7988	90
29.8062	90
29.8136	82
29.8210	83
29.8284	74
29.8358	85
29.8432	93
29.8505	91
29.8579	88
29.8653	93
29.8727	74
29.8801	84
29.8875	97
29.8949	89
29.9023	71
29.9097	93
29.9171	84
29.9245	85
29.9319	81
29.9393	80
29.9467	79
29.9541	85
29.9615	75
29.9689	92
29.9763	93
29.9837	78
29.9911	86
29.9985	72
30.0058	93
30.0132	89
30.0206	74
30.0280	90
30.0354	81
30.0428	94
30.0502	90
30.0576	85
30.0650	78
30.0724	82
30.0798	83
30.0872	87
30.0946	85
30.1020	87
30.1094	83
30.1168	75
30.1242	87
30.1316	91
30.1390	83
30.1464	85
30.1538	76
30.1612	80
30.1685	91
30.1759	85
30.1833	70
30.1907	83
30.1981	95
30.2055	94
30.2129	86
30.2203	81
30.2277	77
30.2351	89
30.2425	95
30.2499	92
30.2573	77
30.2647	100
30.2721	80
30.2795	88
30.2869	86
30.2943	96
30.3017	79
30.3091	71
30.3165	75
30.3238	75
30.3312	77
30.3386	79
30.3460	96
30.3534	80
30.3608	84
30.3682	85
30.3756	78
30.3830	85
30.3904	79
30.3978	97
30.4052	72
30.4126	97
30.4200	110
30.4274	107
30.4348	94
30.4422	98
30.4496	98
30.4570	92
30.4644	98
30.4718	115
30.4791	109
30.4865	103
30.4939	134
30.5013	107
30.5087	127
30.5161	158
30.5235	130
30.5309	143
30.5383	140
30.5457	125
30.5531	143
30.5605	130
30.5679	150
30.5753	117
30.5827	140
30.5901	127
30.5975	148
30.6049	147
30.6123	129
30.6197	130
30.6271	138
30.6344	116
30.6418	136
30.6492	128
30.6566	148
30.6640	133
30.6714	123
30.6788	139
30.6862	135
30.6936	111
30.7010	114
30.7084	137
30.7158	110
30.7232	125
30.7306	143
30.7380	136
30.7454	116
30.7528	129
30.7602	128
30.7676	135
30.7750	117
30.7824	105
30.7897	109
30.7971	107
30.8045	104
30.8119	101
30.8193	104
30.8267	105
30.8341	77
30.8415	94
30.8489	86
30.8563	68
30.8637	90
30.8711	88
30.8785	87
30.8859	76
30.8933	95
30.9007	93
30.9081	92
30.9155	82
30.9229	103
30.9303	77
30.9377	92
30.9450	80
30.9524	85
30.9598	82
30.9672	111
30.9746	72
30.9820	79
30.9894	74
30.9968	76
31.0042	79
31.0116	77
31.0190	86
31.0264	79
31.0338	77
31.0412	86
31.0486	95
31.0560	71
31.0634	92
31.0708	92
31.0782	81
31.0856	78
31.0930	76
31.1003	74
31.1077	77
31.1151	89
31.1225	85
31.1299	93
31.1373	87
31.1447	104
31.1521	88
31.1595	73
31.1669	88
31.1743	85
31.1817	83
31.1891	78
31.1965	75
31.2039	88
31.2113	83
31.2187	70
31.2261	75
31.2335	79
31.2409	81
31.2483	91
31.2556	86
31.2630	92
31.2704	96
31.2778	96
31.2852	75
31.2926	98
31.3000	103
31.3074	100
31.3148	88
31.3222	116
31.3296	106
31.3370	91
31.3444	105
31.3518	106
31.3592	136
31.3666	129
31.3740	135
31.3814	139
31.3888	132
31.3962	173
31.4036	172
31.4109	180
31.4183	171
31.4257	206
31.4331	228
31.4405	203
31.4479	208
31.4553	214
31.4627	220
31.4701	225
31.4775	210
31.4849	230
31.4923	218
31.4997	207
31.5071	239
31.5145	204
31.5219	217
31.5293	216
31.5367	241
31.5441	208
31.5515	173
31.5589	188
31.5662	203
31.5736	190
31.5810	202
31.5884	178
31.5958	188
31.6032	190
31.6106	186
31.6180	188
31.6254	181
31.6328	163
31.6402	134
31.6476	159
31.6550	152
31.6624	181
31.6698	161
31.6772	162
31.6846	153
31.6920	162
31.6994	140
31.7068	159
31.7142	120
31.7215	140
31.7289	133
31.7363	119
31.7437	103
31.7511	106
31.7585	108
31.7659	105
31.7733	110
31.7807	109
31.7881	125
31.7955	128
31.8029	111
31.8103	106
31.8177	88
31.8251	91
31.8325	104
31.8399	87
31.8473	101
31.8547	106
31.8621	107
31.8695	102
31.8769	94
31.8842	99
31.8916	104
31.8990	131
31.9064	148
31.9138	122
31.9212	103
31.9286	132
31.9360	129
31.9434	126
31.9508	135
31.9582	146
31.9656	133
31.9730	110
31.9804	140
31.9878	113
31.9952	135
32.0026	132
32.0100	155
32.0174	133
32.0248	131
32.0322	109
32.0395	117
32.0469	101
32.0543	121
32.0617	101
32.0691	107
32.0765	100
32.0839	99
32.0913	105
32.0987	102
32.1061	122
32.1135	90
32.1209	105
32.1283	106
32.1357	97
32.1431	105
32.1505	88
32.1579	92
32.1653	85
32.1727	88
32.1801	79
32.1875	104
32.1948	83
32.2022	81
32.2096	81
32.2170	81
32.2244	81
32.2318	68
32.2392	78
32.2466	91
32.2540	81
32.2614	73
32.2688	86
32.2762	74
32.2836	81
32.2910	83
32.2984	81
32.3058	84
32.3132	79
32.3206	87
32.3280	72
32.3354	86
32.3428	67
32.3501	74
32.3575	73
32.3649	73
32.3723	95
32.3797	84
32.3871	75
32.3945	87
32.4019	76
32.4093	84
32.4167	79
32.4241	79
32.4315	82
32.4389	89
32.4463	81
32.4537	69
32.4611	88
32.4685	88
32.4759	63
32.4833	69
32.4907	77
32.4981	99
32.5054	79
32.5128	76
32.5202	82
32.5276	93
32.5350	77
32.5424	72
32.5498	89
32.5572	81
32.5646	74
32.5720	90
32.5794	82
32.5868	79
32.5942	81
32.6016	84
32.6090	80
32.6164	90
32.6238	70
32.6312	70
32.6386	80
32.6460	76
32.6534	83
32.6607	83
32.6681	92
32.6755	60
32.6829	79
32.6903	81
32.6977	89
32.7051	111
32.7125	78
32.7199	103
32.7273	83
32.7347	77
32.7421	88
32.7495	81
32.7569	85
32.7643	76
32.7717	77
32.7791	57
32.7865	79
32.7939	93
32.8013	93
32.8087	86
32.8160	83
32.8234	77
32.8308	82
32.8382	84
32.8456	90
32.8530	81
32.8604	96
32.8678	81
32.8752	99
32.8826	102
32.8900	89
32.8974	94
32.9048	99
32.9122	80
32.9196	89
32.9270	112
32.9344	97
32.9418	86
32.9492	88
32.9566	88
32.9640	83
32.9713	88
32.9787	85
32.9861	104
32.9935	93
33.0009	90
33.0083	100
33.0157	82
33.0231	104
33.0305	94
33.0379	83
33.0453	88
33.0527	89
33.0601	90
33.0675	70
33.0749	74
33.0823	86
33.0897	92
33.0971	100
33.1045	98
33.1119	82
33.1193	66
33.1266	76
33.1340	67
33.1414	85
33.1488	96
33.1562	99
33.1636	99
33.1710	73
33.1784	83
33.1858	91
33.1932	81
33.2006	76
33.2080	85
33.2154	103
33.2228	84
33.2302	86
33.2376	77
33.2450	86
33.2524	84
33.2598	99
33.2672	71
33.2746	80
33.2819	103
33.2893	101
33.2967	99
33.3041	98
33.3115	103
33.3189	131
33.3263	106
33.3337	99
33.3411	100
33.3485	107
33.3559	125
33.3633	98
33.3707	97
33.3781	100
33.3855	106
33.3929	102
33.4003	122
33.4077	114
33.4151	105
33.4225	116
33.4299	114
33.4373	141
33.4446	120
33.4520	131
33.4594	137
33.4668	138
33.4742	156
33.4816	145
33.4890	172
33.4964	183
33.5038	148
33.5112	171
33.5186	213
33.5260	242
33.5334	242
33.5408	269
33.5482	279
33.5556	236
33.5630	276
33.5704	316
33.5778	299
33.5852	286
33.5926	338
33.5999	384
33.6073	335
33.6147	322
33.6221	342
33.6295	340
33.6369	378
33.6443	379
33.6517	331
33.6591	350
33.6665	299
33.6739	331
33.6813	327
33.6887	295
33.6961	295
33.7035	252
33.7109	250
33.7183	298
33.7257	251
33.7331	230
33.7405	221
33.7479	205
33.7552	188
33.7626	184
33.7700	204
33.7774	163
33.7848	160
33.7922	141
33.7996	127
33.8070	136
33.8144	120
33.8218	103
33.8292	122
33.8366	100
33.8440	117
33.8514	107
33.8588	116
33.8662	98
33.8736	113
33.8810	107
33.8884	94
33.8958	110
33.9032	90
33.9105	111
33.9179	100
33.9253	90
33.9327	103
33.9401	107
33.9475	126
33.9549	112
33.9623	111
33.9697	111
33.9771	127
33.9845	103
33.9919	111
33.9993	108
34.0067	139
34.0141	140
34.0215	140
34.0289	133
34.0363	151
34.0437	130
34.0511	120
34.0585	131
34.0658	118
34.0732	138
34.0806	132
34.0880	131
34.0954	137
34.1028	136
34.1102	124
34.1176	144
34.1250	133
34.1324	123
34.1398	144
34.1472	128
34.1546	117
34.1620	113
34.1694	103
34.1768	131
34.1842	126
34.1916	110
34.1990	109
34.2064	123
34.2138	127
34.2211	128
34.2285	121
34.2359	105
34.2433	98
34.2507	100
34.2581	111
34.2655	94
34.2729	94
34.2803	101
34.2877	88
34.2951	88
34.3025	75
34.3099	85
34.3173	85
34.3247	87
34.3321	87
34.3395	87
34.3469	76
34.3543	91
34.3617	82
34.3691	73
34.3764	72
34.3838	103
34.3912	71
34.3986	74
34.4060	102
34.4134	80
34.4208	83
34.4282	79
34.4356	83
34.4430	84
34.4504	69
34.4578	96
34.4652	88
34.4726	98
34.4800	95
34.4874	90
34.4948	78
34.5022	87
34.5096	80
34.5170	93
34.5244	65
34.5317	96
34.5391	95
34.5465	84
34.5539	72
34.5613	79
34.5687	84
34.5761	74
34.5835	64
34.5909	79
34.5983	85
34.6057	83
34.6131	80
34.6205	98
34.6279	75
34.6353	72
34.6427	72
34.6501	83
34.6575	92
34.6649	73
34.6723	89
34.6797	62
34.6870	84
34.6944	73
34.7018	71
34.7092	74
34.7166	90
34.7240	77
34.7314	71
34.7388	88
34.7462	77
34.7536	77
34.7610	89
34.7684	84
34.7758	93
34.7832	79
34.7906	57
34.7980	86
34.8054	89
34.8128	84
34.8202	84
34.8276	79
34.8350	74
34.8423	97
34.8497	82
34.8571	85
34.8645	88
34.8719	88
34.8793	93
34.8867	87
34.8941	83
34.9015	69
34.9089	91
34.9163	101
34.9237	94
34.9311	73
34.9385	82
34.9459	90
34.9533	90
34.9607	83
34.9681	102
34.9755	97
34.9829	120
34.9903	118
34.9977	101
35.0050	100
35.0124	103
35.0198	83
35.0272	119
35.0346	104
35.0420	106
35.0494	97
35.0568	111
35.0642	85
35.0716	91
35.0790	109
35.0864	116
35.0938	91
35.1012	97
35.1086	112
35.1160	119
35.1234	111
35.1308	119
35.1382	120
35.1456	99
35.1530	120
35.1603	115
35.1677	119
35.1751	125
35.1825	135
35.1899	110
35.1973	129
35.2047	119
35.2121	146
35.2195	128
35.2269	118
35.2343	119
35.2417	134
35.2491	113
35.2565	133
35.2639	126
35.2713	116
35.2787	133
35.2861	111
35.2935	124
35.3009	137
35.3083	126
35.3156	121
35.3230	128
35.3304	110
35.3378	100
35.3452	94
35.3526	104
35.3600	97
35.3674	100
35.3748	116
35.3822	104
35.3896	102
35.3970	82
35.4044	127
35.4118	96
35.4192	81
35.4266	84
35.4340	104
35.4414	109
35.4488	119
35.4562	101
35.4636	144
35.4709	146
35.4783	151
35.4857	153
35.4931	189
35.5005	166
35.5079	166
35.5153	145
35.5227	146
35.5301	140
35.5375	121
35.5449	136
35.5523	144
35.5597	146
35.5671	117
35.5745	126
35.5819	135
35.5893	145
35.5967	137
35.6041	140
35.6115	116
35.6189	122
35.6262	113
35.6336	102
35.6410	99
35.6484	104
35.6558	94
35.6632	103
35.6706	96
35.6780	87
35.6854	104
35.6928	94
35.7002	92
35.7076	78
35.7150	81
35.7224	58
35.7298	91
35.7372	90
35.7446	85
35.7520	100
35.7594	81
35.7668	81
35.7742	86
35.7815	84
35.7889	81
35.7963	70
35.8037	77
35.8111	84
35.8185	94
35.8259	79
35.8333	74
35.8407	103
35.8481	82
35.8555	81
35.8629	84
35.8703	96
35.8777	80
35.8851	89
35.8925	82
35.8999	92
35.9073	82
35.9147	80
35.9221	79
35.9295	98
35.9368	84
35.9442	111
35.9516	86
35.9590	88
35.9664	99
35.9738	117
35.9812	119
35.9886	114
35.9960	116
36.0034	124
36.0108	138
36.0182	132
36.0256	172
36.0330	170
36.0404	211
36.0478	229
36.0552	239
36.0626	210
36.0700	224
36.0774	241
36.0848	259
36.0921	231
36.0995	215
36.1069	252
36.1143	238
36.1217	242
36.1291	235
36.1365	219
36.1439	240
36.1513	235
36.1587	302
36.1661	269
36.1735	250
36.1809	276
36.1883	260
36.1957	251
36.2031	233
36.2105	247
36.2179	246
36.2253	234
36.2327	219
36.2401	203
36.2474	203
36.2548	173
36.2622	188
36.2696	190
36.2770	191
36.2844	184
36.2918	194
36.2992	185
36.3066	189
36.3140	180
36.3214	183
36.3288	187
36.3362	174
36.3436	173
36.3510	175
36.3584	168
36.3658	159
36.3732	175
36.3806	184
36.3880	187
36.3954	155
36.4027	157
36.4101	172
36.4175	149
36.4249	147
36.4323	174
36.4397	156
36.4471	163
36.4545	144
36.4619	133
36.4693	136
36.4767	138
36.4841	124
36.4915	121
36.4989	131
36.5063	120
36.5137	125
36.5211	106
36.5285	86
36.5359	100
36.5433	84
36.5507	91
36.5580	96
36.5654	104
36.5728	91
36.5802	65
36.5876	101
36.5950	103
36.6024	95
36.6098	75
36.6172	72
36.6246	90
36.6320	77
36.6394	87
36.6468	73
36.6542	98
36.6616	85
36.6690	88
36.6764	89
36.6838	72
36.6912	74
36.6986	74
36.7060	91
36.7134	79
36.7207	71
36.7281	78
36.7355	84
36.7429	66
36.7503	80
36.7577	80
36.7651	84
36.7725	94
36.7799	77
36.7873	72
36.7947	74
36.8021	78
36.8095	84
36.8169	85
36.8243	84
36.8317	96
36.8391	71
36.8465	68
36.8539	78
36.8613	67
36.8687	85
36.8760	76
36.8834	87
36.8908	73
36.8982	78
36.9056	95
36.9130	72
36.9204	81
36.9278	79
36.9352	84
36.9426	81
36.9500	71
36.9574	83
36.9648	77
36.9722	79
36.9796	68
36.9870	87
36.9944	75
37.0018	100
37.0092	77
37.0166	91
37.0240	70
37.0313	100
37.0387	81
37.0461	58
37.0535	83
37.0609	78
37.0683	79
37.0757	114
37.0831	94
37.0905	81
37.0979	92
37.1053	91
37.1127	87
37.1201	100
37.1275	96
37.1349	97
37.1423	96
37.1497	91
37.1571	101
37.1645	116
37.1719	125
37.1793	129
37.1866	109
37.1940	112
37.2014	104
37.2088	107
37.2162	102
37.2236	98
37.2310	89
37.2384	89
37.2458	90
37.2532	98
37.2606	127
37.2680	111
37.2754	111
37.2828	93
37.2902	111
37.2976	120
37.3050	100
37.3124	112
37.3198	100
37.3272	98
37.3346	95
37.3419	110
37.3493	79
37.3567	65
37.3641	94
37.3715	79
37.3789	84
37.3863	79
37.3937	96
37.4011	98
37.4085	70
37.4159	80
37.4233	102
37.4307	87
37.4381	91
37.4455	83
37.4529	77
37.4603	79
37.4677	77
37.4751	83
37.4825	81
37.4899	90
37.4972	94
37.5046	107
37.5120	89
37.5194	89
37.5268	88
37.5342	90
37.5416	80
37.5490	77
37.5564	100
37.5638	98
37.5712	79
37.5786	83
37.5860	102
37.5934	84
37.6008	100
37.6082	77
37.6156	118
37.6230	122
37.6304	116
37.6378	137
37.6452	135
37.6525	142
37.6599	140
37.6673	150
37.6747	158
37.6821	154
37.6895	157
37.6969	166
37.7043	158
37.7117	168
37.7191	167
37.7265	175
37.7339	170
37.7413	160
37.7487	157
37.7561	157
37.7635	199
37.7709	187
37.7783	197
37.7857	185
37.7931	165
37.8005	159
37.8078	178
37.8152	146
37.8226	148
37.8300	182
37.8374	146
37.8448	142
37.8522	141
37.8596	139
37.8670	128
37.8744	134
37.8818	133
37.8892	125
37.8966	105
37.9040	97
37.9114	100
37.9188	118
37.9262	108
37.9336	99
37.9410	121
37.9484	101
37.9558	98
37.9631	99
37.9705	99
37.9779	110
37.9853	78
37.9927	100
38.0001	81
38.0075	91
38.0149	107
38.0223	93
38.0297	97
38.0371	76
38.0445	78
38.0519	80
38.0593	85
38.0667	92
38.0741	90
38.0815	83
38.0889	100
38.0963	95
38.1037	77
38.1111	83
38.1184	92
38.1258	93
38.1332	100
38.1406	85
38.1480	87
38.1554	77
38.1628	82
38.1702	95
38.1776	92
38.1850	89
38.1924	75
38.1998	101
38.2072	82
38.2146	90
38.2220	85
38.2294	102
38.2368	84
38.2442	93
38.2516	91
38.2590	102
38.2664	110
38.2738	90
38.2811	107
38.2885	105
38.2959	119
38.3033	97
38.3107	120
38.3181	107
38.3255	115
38.3329	126
38.3403	115
38.3477	118
38.3551	133
38.3625	121
38.3699	158
38.3773	120
38.3847	127
38.3921	147
38.3995	107
38.4069	115
38.4143	151
38.4217	137
38.4291	119
38.4364	130
38.4438	119
38.4512	137
38.4586	125
38.4660	116
38.4734	134
38.4808	143
38.4882	143
38.4956	131
38.5030	142
38.5104	139
38.5178	137
38.5252	142
38.5326	145
38.5400	143
38.5474	162
38.5548	162
38.5622	157
38.5696	140
38.5770	110
38.5844	145
38.5917	132
38.5991	112
38.6065	116
38.6139	118
38.6213	139
38.6287	125
38.6361	117
38.6435	127
38.6509	107
38.6583	101
38.6657	116
38.6731	124
38.6805	109
38.6879	109
38.6953	109
38.7027	91
38.7101	101
38.7175	99
38.7249	90
38.7323	89
38.7397	98
38.7470	82
38.7544	87
38.7618	94
38.7692	84
38.7766	100
38.7840	95
38.7914	98
38.7988	93
38.8062	99
38.8136	90
38.8210	99
38.8284	95
38.8358	100
38.8432	95
38.8506	97
38.8580	97
38.8654	84
38.8728	92
38.8802	93
38.8876	75
38.8950	91
38.9023	89
38.9097	79
38.9171	96
38.9245	78
38.9319	80
38.9393	75
38.9467	83
38.9541	82
38.9615	101
38.9689	85
38.9763	70
38.9837	89
38.9911	89
38.9985	91
39.0059	93
39.0133	75
39.0207	79
39.0281	75
39.0355	89
39.0429	88
39.0503	84
39.0576	84
39.0650	107
39.0724	114
39.0798	87
39.0872	85
39.0946	96
39.1020	90
39.1094	78
39.1168	95
39.1242	94
39.1316	87
39.1390	107
39.1464	80
39.1538	93
39.1612	103
39.1686	108
39.1760	116
39.1834	112
39.1908	99
39.1982	91
39.2056	98
39.2129	110
39.2203	124
39.2277	112
39.2351	118
39.2425	127
39.2499	132
39.2573	123
39.2647	165
39.2721	181
39.2795	175
39.2869	214
39.2943	240
39.3017	230
39.3091	238
39.3165	236
39.3239	239
39.3313	211
39.3387	253
39.3461	208
39.3535	217
39.3609	216
39.3682	270
39.3756	243
39.3830	249
39.3904	229
39.3978	217
39.4052	269
39.4126	258
39.4200	269
39.4274	238
39.4348	274
39.4422	221
39.4496	200
39.4570	213
39.4644	225
39.4718	228
39.4792	193
39.4866	204
39.4940	231
39.5014	209
39.5088	232
39.5162	226
39.5235	211
39.5309	201
39.5383	214
39.5457	180
39.5531	176
39.5605	170
39.5679	197
39.5753	187
39.5827	183
39.5901	183
39.5975	167
39.6049	173
39.6123	153
39.6197	167
39.6271	156
39.6345	145
39.6419	137
39.6493	153
39.6567	139
39.6641	123
39.6715	123
39.6788	122
39.6862	103
39.6936	105
39.7010	141
39.7084	98
39.7158	113
39.7232	115
39.7306	108
39.7380	104
39.7454	86
39.7528	92
39.7602	93
39.7676	100
39.7750	80
39.7824	111
39.7898	87
39.7972	99
39.8046	107
39.8120	92
39.8194	109
39.8268	116
39.8342	98
39.8415	124
39.8489	133
39.8563	121
39.8637	113
39.8711	142
39.8785	120
39.8859	115
39.8933	125
39.9007	131
39.9081	106
39.9155	113
39.9229	108
39.9303	129
39.9377	127
39.9451	114
39.9525	127
39.9599	105
39.9673	122
39.9747	117
39.9821	100
39.9895	99
39.9968	110
