2.0000	187
2.0074	184
2.0148	192
2.0222	192
2.0296	163
2.0370	180
2.0444	195
2.0518	188
2.0592	206
2.0666	223
2.0740	173
2.0813	193
2.0887	189
2.0961	200
2.1035	196
2.1109	172
2.1183	196
2.1257	182
2.1331	185
2.1405	217
2.1479	160
2.1553	171
2.1627	184
2.1701	177
2.1775	220
2.1849	183
2.1923	192
2.1997	185
2.2071	184
2.2145	176
2.2219	195
2.2293	194
2.2366	189
2.2440	192
2.2514	198
2.2588	159
2.2662	180
2.2736	182
2.2810	172
2.2884	186
2.2958	177
2.3032	192
2.3106	203
2.3180	195
2.3254	175
2.3328	185
2.3402	202
2.3476	181
2.3550	189
2.3624	201
2.3698	179
2.3772	194
2.3846	179
2.3919	193
2.3993	217
2.4067	185
2.4141	202
2.4215	181
2.4289	183
2.4363	193
2.4437	194
2.4511	182
2.4585	181
2.4659	177
2.4733	182
2.4807	187
2.4881	183
2.4955	190
2.5029	195
2.5103	173
2.5177	174
2.5251	166
2.5325	177
2.5399	186
2.5472	201
2.5546	183
2.5620	181
2.5694	201
2.5768	194
2.5842	191
2.5916	189
2.5990	171
2.6064	187
2.6138	212
2.6212	166
2.6286	177
2.6360	155
2.6434	179
2.6508	200
2.6582	171
2.6656	173
2.6730	181
2.6804	172
2.6878	191
2.6952	190
2.7025	156
2.7099	190
2.7173	160
2.7247	177
2.7321	173
2.7395	196
2.7469	186
2.7543	191
2.7617	179
2.7691	175
2.7765	179
2.7839	192
2.7913	170
2.7987	173
2.8061	155
2.8135	203
2.8209	175
2.8283	167
2.8357	157
2.8431	174
2.8505	171
2.8579	172
2.8652	193
2.8726	189
2.8800	196
2.8874	177
2.8948	167
2.9022	177
2.9096	181
2.9170	170
2.9244	152
2.9318	164
2.9392	156
2.9466	177
2.9540	171
2.9614	182
2.9688	160
2.9762	174
2.9836	171
2.9910	181
2.9984	198
3.0058	176
3.0132	190
3.0205	177
3.0279	154
3.0353	161
3.0427	155
3.0501	190
3.0575	188
3.0649	177
3.0723	169
3.0797	172
3.0871	174
3.0945	175
3.1019	167
3.1093	183
3.1167	164
3.1241	175
3.1315	190
3.1389	171
3.1463	148
3.1537	165
3.1611	185
3.1685	176
3.1758	159
3.1832	158
3.1906	192
3.1980	154
3.2054	172
3.2128	180
3.2202	142
3.2276	182
3.2350	163
3.2424	167
3.2498	165
3.2572	165
3.2646	148
3.2720	179
3.2794	180
3.2868	150
3.2942	174
3.3016	188
3.3090	169
3.3164	171
3.3238	178
3.3311	187
3.3385	170
3.3459	173
3.3533	164
3.3607	165
3.3681	169
3.3755	160
3.3829	175
3.3903	174
3.3977	155
3.4051	146
3.4125	158
3.4199	162
3.4273	157
3.4347	170
3.4421	161
3.4495	146
3.4569	190
3.4643	139
3.4717	165
3.4791	177
3.4864	170
3.4938	157
3.5012	151
3.5086	157
3.5160	162
3.5234	176
3.5308	164
3.5382	164
3.5456	168
3.5530	161
3.5604	161
3.5678	145
3.5752	180
3.5826	180
3.5900	170
3.5974	157
3.6048	172
3.6122	153
3.6196	169
3.6270	155
3.6344	189
3.6417	159
3.6491	161
3.6565	162
3.6639	173
3.6713	173
3.6787	163
3.6861	166
3.6935	158
3.7009	154
3.7083	151
3.7157	177
3.7231	148
3.7305	160
3.7379	167
3.7453	154
3.7527	139
3.7601	136
3.7675	137
3.7749	164
3.7823	169
3.7897	152
3.7970	158
3.8044	138
3.8118	153
3.8192	158
3.8266	142
3.8340	144
3.8414	139
3.8488	163
3.8562	149
3.8636	144
3.8710	139
3.8784	144
3.8858	139
3.8932	138
3.9006	158
3.9080	154
3.9154	140
3.9228	156
3.9302	157
3.9376	152
3.9450	136
3.9523	135
3.9597	139
3.9671	154
3.9745	143
3.9819	129
3.9893	160
3.9967	125
4.0041	153
4.0115	121
4.0189	140
4.0263	136
4.0337	132
4.0411	138
4.0485	161
4.0559	131
4.0633	116
4.0707	144
4.0781	157
4.0855	118
4.0929	149
4.1003	162
4.1076	131
4.1150	132
4.1224	127
4.1298	130
4.1372	121
4.1446	156
4.1520	138
4.1594	141
4.1668	133
4.1742	143
4.1816	153
4.1890	127
4.1964	138
4.2038	146
4.2112	146
4.2186	114
4.2260	159
4.2334	141
4.2408	129
4.2482	132
4.2556	127
4.2629	140
4.2703	124
4.2777	117
4.2851	132
4.2925	122
4.2999	123
4.3073	120
4.3147	125
4.3221	131
4.3295	124
4.3369	125
4.3443	118
4.3517	147
4.3591	129
4.3665	132
4.3739	139
4.3813	134
4.3887	117
4.3961	128
4.4035	131
4.4109	120
4.4183	119
4.4256	125
4.4330	105
4.4404	113
4.4478	126
4.4552	137
4.4626	111
4.4700	110
4.4774	95
4.4848	125
4.4922	128
4.4996	128
4.5070	99
4.5144	137
4.5218	112
4.5292	117
4.5366	94
4.5440	124
4.5514	124
4.5588	118
4.5662	118
4.5736	120
4.5809	125
4.5883	107
4.5957	106
4.6031	99
4.6105	114
4.6179	96
4.6253	137
4.6327	140
4.6401	105
4.6475	89
4.6549	119
4.6623	123
4.6697	120
4.6771	109
4.6845	126
4.6919	96
4.6993	114
4.7067	114
4.7141	111
4.7215	137
4.7289	115
4.7362	128
4.7436	109
4.7510	118
4.7584	120
4.7658	123
4.7732	97
4.7806	105
4.7880	99
4.7954	101
4.8028	103
4.8102	95
4.8176	111
4.8250	103
4.8324	102
4.8398	105
4.8472	107
4.8546	126
4.8620	92
4.8694	98
4.8768	108
4.8842	108
4.8915	106
4.8989	114
4.9063	94
4.9137	121
4.9211	105
4.9285	114
4.9359	108
4.9433	95
4.9507	90
4.9581	95
4.9655	113
4.9729	120
4.9803	125
4.9877	92
4.9951	120
5.0025	119
5.0099	98
5.0173	120
5.0247	103
5.0321	108
5.0395	101
5.0468	103
5.0542	97
5.0616	100
5.0690	107
5.0764	102
5.0838	99
5.0912	114
5.0986	110
5.1060	123
5.1134	123
5.1208	99
5.1282	102
5.1356	100
5.1430	93
5.1504	101
5.1578	108
5.1652	102
5.1726	105
5.1800	99
5.1874	83
5.1948	94
5.2021	77
5.2095	92
5.2169	102
5.2243	96
5.2317	107
5.2391	120
5.2465	104
5.2539	114
5.2613	87
5.2687	102
5.2761	102
5.2835	94
5.2909	108
5.2983	101
5.3057	91
5.3131	111
5.3205	93
5.3279	93
5.3353	89
5.3427	86
5.3501	100
5.3574	112
5.3648	113
5.3722	104
5.3796	94
5.3870	105
5.3944	120
5.4018	108
5.4092	99
5.4166	85
5.4240	85
5.4314	93
5.4388	106
5.4462	111
5.4536	77
5.4610	114
5.4684	92
5.4758	113
5.4832	89
5.4906	105
5.4980	110
5.5054	103
5.5127	107
5.5201	85
5.5275	106
5.5349	92
5.5423	71
5.5497	102
5.5571	90
5.5645	99
5.5719	89
5.5793	92
5.5867	89
5.5941	95
5.6015	115
5.6089	82
5.6163	93
5.6237	85
5.6311	98
5.6385	74
5.6459	104
5.6533	101
5.6607	92
5.6680	87
5.6754	108
5.6828	111
5.6902	90
5.6976	110
5.7050	98
5.7124	98
5.7198	89
5.7272	88
5.7346	87
5.7420	91
5.7494	112
5.7568	87
5.7642	94
5.7716	101
5.7790	83
5.7864	92
5.7938	107
5.8012	97
5.8086	104
5.8160	86
5.8233	100
5.8307	88
5.8381	98
5.8455	96
5.8529	86
5.8603	88
5.8677	95
5.8751	91
5.8825	110
5.8899	93
5.8973	107
5.9047	103
5.9121	114
5.9195	99
5.9269	111
5.9343	89
5.9417	108
5.9491	99
5.9565	80
5.9639	102
5.9713	103
5.9786	106
5.9860	124
5.9934	123
6.0008	124
6.0082	133
6.0156	139
6.0230	164
6.0304	150
6.0378	159
6.0452	138
6.0526	149
6.0600	139
6.0674	132
6.0748	119
6.0822	126
6.0896	115
6.0970	121
6.1044	108
6.1118	106
6.1192	105
6.1266	110
6.1340	89
6.1413	108
6.1487	84
6.1561	97
6.1635	104
6.1709	87
6.1783	101
6.1857	96
6.1931	84
6.2005	105
6.2079	82
6.2153	102
6.2227	99
6.2301	100
6.2375	77
6.2449	81
6.2523	75
6.2597	84
6.2671	81
6.2745	97
6.2819	103
6.2893	85
6.2966	84
6.3040	95
6.3114	101
6.3188	92
6.3262	103
6.3336	81
6.3410	99
6.3484	94
6.3558	98
6.3632	98
6.3706	96
6.3780	90
6.3854	90
6.3928	76
6.4002	87
6.4076	88
6.4150	95
6.4224	85
6.4298	91
6.4372	91
6.4446	91
6.4519	88
6.4593	103
6.4667	100
6.4741	74
6.4815	93
6.4889	102
6.4963	82
6.5037	77
6.5111	90
6.5185	70
6.5259	82
6.5333	90
6.5407	88
6.5481	86
6.5555	102
6.5629	93
6.5703	88
6.5777	90
6.5851	79
6.5925	96
6.5999	84
6.6072	84
6.6146	92
6.6220	93
6.6294	71
6.6368	96
6.6442	84
6.6516	91
6.6590	95
6.6664	91
6.6738	105
6.6812	92
6.6886	82
6.6960	77
6.7034	96
6.7108	91
6.7182	91
6.7256	98
6.7330	82
6.7404	83
6.7478	67
6.7552	76
6.7625	95
6.7699	94
6.7773	83
6.7847	84
6.7921	79
6.7995	95
6.8069	79
6.8143	82
6.8217	71
6.8291	86
6.8365	85
6.8439	95
6.8513	85
6.8587	91
6.8661	73
6.8735	80
6.8809	87
6.8883	90
6.8957	100
6.9031	86
6.9105	99
6.9178	78
6.9252	91
6.9326	80
6.9400	71
6.9474	87
6.9548	92
6.9622	73
6.9696	90
6.9770	96
6.9844	86
6.9918	91
6.9992	87
7.0066	83
7.0140	69
7.0214	85
7.0288	84
7.0362	73
7.0436	80
7.0510	83
7.0584	98
7.0658	75
7.0731	90
7.0805	93
7.0879	102
7.0953	96
7.1027	93
7.1101	91
7.1175	81
7.1249	87
7.1323	80
7.1397	88
7.1471	91
7.1545	89
7.1619	90
7.1693	69
7.1767	95
7.1841	86
7.1915	81
7.1989	100
7.2063	89
7.2137	91
7.2211	93
7.2284	84
7.2358	90
7.2432	94
7.2506	91
7.2580	119
7.2654	95
7.2728	83
7.2802	87
7.2876	95
7.2950	82
7.3024	89
7.3098	70
7.3172	82
7.3246	79
7.3320	82
7.3394	71
7.3468	91
7.3542	93
7.3616	85
7.3690	97
7.3764	84
7.3837	80
7.3911	81
7.3985	84
7.4059	91
7.4133	77
7.4207	73
7.4281	96
7.4355	86
7.4429	92
7.4503	102
7.4577	88
7.4651	79
7.4725	73
7.4799	90
7.4873	84
7.4947	73
7.5021	85
7.5095	91
7.5169	106
7.5243	96
7.5317	108
7.5390	89
7.5464	87
7.5538	91
7.5612	84
7.5686	84
7.5760	89
7.5834	87
7.5908	94
7.5982	103
7.6056	86
7.6130	77
7.6204	92
7.6278	75
7.6352	92
7.6426	89
7.6500	100
7.6574	85
7.6648	70
7.6722	109
7.6796	100
7.6870	80
7.6944	93
7.7017	100
7.7091	91
7.7165	84
7.7239	98
7.7313	107
7.7387	88
7.7461	73
7.7535	102
7.7609	94
7.7683	107
7.7757	99
7.7831	101
7.7905	89
7.7979	98
7.8053	89
7.8127	85
7.8201	90
7.8275	91
7.8349	93
7.8423	89
7.8497	93
7.8570	78
7.8644	83
7.8718	101
7.8792	91
7.8866	72
7.8940	86
7.9014	85
7.9088	91
7.9162	70
7.9236	95
7.9310	77
7.9384	79
7.9458	80
7.9532	102
7.9606	72
7.9680	85
7.9754	87
7.9828	83
7.9902	77
7.9976	93
8.0050	94
8.0123	87
8.0197	87
8.0271	86
8.0345	92
8.0419	93
8.0493	77
8.0567	91
8.0641	100
8.0715	106
8.0789	107
8.0863	92
8.0937	93
8.1011	110
8.1085	93
8.1159	93
8.1233	105
8.1307	86
8.1381	86
8.1455	95
8.1529	111
8.1603	110
8.1676	118
8.1750	96
8.1824	95
8.1898	120
8.1972	129
8.2046	120
8.2120	116
8.2194	119
8.2268	140
8.2342	121
8.2416	113
8.2490	161
8.2564	142
8.2638	152
8.2712	184
8.2786	175
8.2860	166
8.2934	190
8.3008	163
8.3082	198
8.3156	206
8.3229	230
8.3303	224
8.3377	240
8.3451	234
8.3525	253
8.3599	279
8.3673	312
8.3747	307
8.3821	363
8.3895	409
8.3969	427
8.4043	419
8.4117	489
8.4191	560
8.4265	629
8.4339	634
8.4413	732
8.4487	835
8.4561	959
8.4635	1010
8.4709	1251
8.4782	1455
8.4856	1715
8.4930	2011
8.5004	2442
8.5078	2844
8.5152	3232
8.5226	3629
8.5300	3986
8.5374	4246
8.5448	4154
8.5522	3900
8.5596	3430
8.5670	2997
8.5744	2381
8.5818	1812
8.5892	1290
8.5966	959
8.6040	713
8.6114	497
8.6188	391
8.6262	327
8.6335	271
8.6409	225
8.6483	240
8.6557	215
8.6631	186
8.6705	182
8.6779	178
8.6853	153
8.6927	170
8.7001	175
8.7075	166
8.7149	172
8.7223	148
8.7297	160
8.7371	152
8.7445	128
8.7519	134
8.7593	127
8.7667	132
8.7741	108
8.7815	133
8.7888	136
8.7962	118
8.8036	163
8.8110	121
8.8184	128
8.8258	130
8.8332	120
8.8406	118
8.8480	125
8.8554	139
8.8628	115
8.8702	121
8.8776	149
8.8850	114
8.8924	118
8.8998	124
8.9072	113
8.9146	116
8.9220	130
8.9294	138
8.9368	113
8.9441	111
8.9515	119
8.9589	136
8.9663	116
8.9737	114
8.9811	113
8.9885	114
8.9959	111
9.0033	113
9.0107	95
9.0181	113
9.0255	116
9.0329	115
9.0403	121
9.0477	114
9.0551	117
9.0625	113
9.0699	111
9.0773	113
9.0847	115
9.0921	108
9.0994	97
9.1068	96
9.1142	93
9.1216	108
9.1290	107
9.1364	119
9.1438	124
9.1512	104
9.1586	105
9.1660	101
9.1734	116
9.1808	105
9.1882	111
9.1956	107
9.2030	97
9.2104	103
9.2178	97
9.2252	116
9.2326	115
9.2400	96
9.2474	102
9.2548	116
9.2621	124
9.2695	94
9.2769	109
9.2843	101
9.2917	118
9.2991	98
9.3065	79
9.3139	104
9.3213	115
9.3287	92
9.3361	101
9.3435	119
9.3509	103
9.3583	111
9.3657	99
9.3731	92
9.3805	84
9.3879	93
9.3953	96
9.4027	101
9.4101	106
9.4174	118
9.4248	92
9.4322	91
9.4396	102
9.4470	101
9.4544	97
9.4618	107
9.4692	115
9.4766	108
9.4840	112
9.4914	98
9.4988	74
9.5062	104
9.5136	102
9.5210	105
9.5284	112
9.5358	121
9.5432	86
9.5506	97
9.5580	97
9.5654	109
9.5727	115
9.5801	105
9.5875	106
9.5949	108
9.6023	94
9.6097	98
9.6171	99
9.6245	97
9.6319	113
9.6393	107
9.6467	111
9.6541	112
9.6615	110
9.6689	109
9.6763	96
9.6837	94
9.6911	115
9.6985	119
9.7059	99
9.7133	112
9.7207	90
9.7280	95
9.7354	90
9.7428	119
9.7502	87
9.7576	115
9.7650	108
9.7724	95
9.7798	98
9.7872	89
9.7946	106
9.8020	94
9.8094	98
9.8168	83
9.8242	103
9.8316	111
9.8390	97
9.8464	96
9.8538	87
9.8612	87
9.8686	96
9.8760	85
9.8833	114
9.8907	116
9.8981	95
9.9055	94
9.9129	106
9.9203	112
9.9277	93
9.9351	103
9.9425	106
9.9499	113
9.9573	106
9.9647	100
9.9721	88
9.9795	103
9.9869	81
9.9943	98
10.0017	89
10.0091	124
10.0165	92
10.0239	111
10.0313	89
10.0386	99
10.0460	110
10.0534	91
10.0608	117
10.0682	91
10.0756	92
10.0830	93
10.0904	96
10.0978	99
10.1052	83
10.1126	112
10.1200	88
10.1274	91
10.1348	90
10.1422	102
10.1496	90
10.1570	109
10.1644	92
10.1718	107
10.1792	87
10.1866	111
10.1939	88
10.2013	76
10.2087	96
10.2161	103
10.2235	100
10.2309	78
10.2383	95
10.2457	105
10.2531	92
10.2605	94
10.2679	80
10.2753	103
10.2827	86
10.2901	84
10.2975	108
10.3049	101
10.3123	101
10.3197	102
10.3271	97
10.3345	86
10.3419	72
10.3492	85
10.3566	98
10.3640	93
10.3714	86
10.3788	95
10.3862	88
10.3936	101
10.4010	95
10.4084	102
10.4158	98
10.4232	107
10.4306	75
10.4380	96
10.4454	90
10.4528	92
10.4602	106
10.4676	103
10.4750	96
10.4824	89
10.4898	100
10.4972	94
10.5045	90
10.5119	108
10.5193	109
10.5267	93
10.5341	91
10.5415	88
10.5489	108
10.5563	99
10.5637	84
10.5711	87
10.5785	112
10.5859	110
10.5933	84
10.6007	97
10.6081	113
10.6155	117
10.6229	77
10.6303	93
10.6377	107
10.6451	90
10.6525	84
10.6598	102
10.6672	79
10.6746	98
10.6820	105
10.6894	82
10.6968	92
10.7042	93
10.7116	106
10.7190	90
10.7264	106
10.7338	97
10.7412	98
10.7486	99
10.7560	84
10.7634	89
10.7708	104
10.7782	94
10.7856	92
10.7930	113
10.8004	80
10.8078	84
10.8151	94
10.8225	85
10.8299	103
10.8373	99
10.8447	94
10.8521	94
10.8595	81
10.8669	85
10.8743	97
10.8817	104
10.8891	93
10.8965	90
10.9039	86
10.9113	110
10.9187	87
10.9261	103
10.9335	95
10.9409	94
10.9483	88
10.9557	89
10.9631	104
10.9705	107
10.9778	105
10.9852	76
10.9926	95
11.0000	91
11.0074	92
11.0148	91
11.0222	94
11.0296	90
11.0370	97
11.0444	81
11.0518	104
11.0592	91
11.0666	92
11.0740	74
11.0814	93
11.0888	94
11.0962	91
11.1036	94
11.1110	103
11.1184	100
11.1258	125
11.1331	93
11.1405	108
11.1479	91
11.1553	87
11.1627	106
11.1701	115
11.1775	105
11.1849	102
11.1923	90
11.1997	115
11.2071	113
11.2145	80
11.2219	102
11.2293	105
11.2367	117
11.2441	89
11.2515	102
11.2589	92
11.2663	99
11.2737	113
11.2811	111
11.2884	100
11.2958	95
11.3032	105
11.3106	115
11.3180	111
11.3254	95
11.3328	88
11.3402	91
11.3476	125
11.3550	106
11.3624	124
11.3698	94
11.3772	98
11.3846	99
11.3920	119
11.3994	100
11.4068	88
11.4142	98
11.4216	102
11.4290	105
11.4364	98
11.4437	107
11.4511	97
11.4585	118
11.4659	101
11.4733	106
11.4807	111
11.4881	107
11.4955	108
11.5029	105
11.5103	108
11.5177	111
11.5251	125
11.5325	120
11.5399	126
11.5473	135
11.5547	113
11.5621	126
11.5695	124
11.5769	131
11.5843	155
11.5917	144
11.5990	149
11.6064	156
11.6138	179
11.6212	221
11.6286	251
11.6360	260
11.6434	270
11.6508	300
11.6582	320
11.6656	373
11.6730	432
11.6804	513
11.6878	562
11.6952	694
11.7026	807
11.7100	899
11.7174	919
11.7248	968
11.7322	986
11.7396	990
11.7470	867
11.7543	692
11.7617	613
11.7691	560
11.7765	449
11.7839	342
11.7913	256
11.7987	201
11.8061	186
11.8135	170
11.8209	141
11.8283	124
11.8357	118
11.8431	117
11.8505	120
11.8579	122
11.8653	124
11.8727	116
11.8801	132
11.8875	111
11.8949	115
11.9023	105
11.9096	115
11.9170	119
11.9244	114
11.9318	129
11.9392	126
11.9466	124
11.9540	122
11.9614	119
11.9688	140
11.9762	137
11.9836	149
11.9910	137
11.9984	149
12.0058	133
12.0132	135
12.0206	134
12.0280	163
12.0354	127
12.0428	130
12.0502	145
12.0576	122
12.0649	136
12.0723	161
12.0797	154
12.0871	134
12.0945	158
12.1019	139
12.1093	140
12.1167	154
12.1241	142
12.1315	152
12.1389	143
12.1463	157
12.1537	153
12.1611	182
12.1685	165
12.1759	158
12.1833	147
12.1907	196
12.1981	204
12.2055	218
12.2129	209
12.2202	221
12.2276	261
12.2350	249
12.2424	289
12.2498	314
12.2572	338
12.2646	379
12.2720	399
12.2794	455
12.2868	573
12.2942	654
12.3016	735
12.3090	854
12.3164	1064
12.3238	1347
12.3312	1633
12.3386	2158
12.3460	2648
12.3534	3200
12.3608	3585
12.3682	3732
12.3755	3856
12.3829	3703
12.3903	3425
12.3977	3030
12.4051	2555
12.4125	2048
12.4199	1593
12.4273	1307
12.4347	907
12.4421	696
12.4495	565
12.4569	426
12.4643	300
12.4717	281
12.4791	227
12.4865	252
12.4939	210
12.5013	189
12.5087	222
12.5161	187
12.5235	182
12.5309	187
12.5382	183
12.5456	169
12.5530	159
12.5604	192
12.5678	156
12.5752	148
12.5826	179
12.5900	158
12.5974	146
12.6048	153
12.6122	141
12.6196	164
12.6270	128
12.6344	149
12.6418	158
12.6492	141
12.6566	149
12.6640	140
12.6714	139
12.6788	156
12.6862	143
12.6935	144
12.7009	146
12.7083	138
12.7157	122
12.7231	140
12.7305	124
12.7379	137
12.7453	143
12.7527	147
12.7601	143
12.7675	122
12.7749	128
12.7823	121
12.7897	119
12.7971	120
12.8045	117
12.8119	113
12.8193	142
12.8267	141
12.8341	131
12.8415	133
12.8488	131
12.8562	145
12.8636	123
12.8710	137
12.8784	132
12.8858	118
12.8932	107
12.9006	128
12.9080	122
12.9154	130
12.9228	125
12.9302	120
12.9376	123
12.9450	134
12.9524	131
12.9598	152
12.9672	131
12.9746	133
12.9820	137
12.9894	125
12.9968	130
13.0041	143
13.0115	125
13.0189	157
13.0263	122
13.0337	115
13.0411	109
13.0485	130
13.0559	129
13.0633	134
13.0707	164
13.0781	152
13.0855	130
13.0929	174
13.1003	129
13.1077	173
13.1151	183
13.1225	164
13.1299	164
13.1373	190
13.1447	216
13.1521	225
13.1594	229
13.1668	272
13.1742	293
13.1816	361
13.1890	394
13.1964	465
13.2038	535
13.2112	641
13.2186	706
13.2260	821
13.2334	923
13.2408	1066
13.2482	1185
13.2556	1193
13.2630	1179
13.2704	1103
13.2778	1021
13.2852	881
13.2926	754
13.3000	663
13.3074	504
13.3147	430
13.3221	307
13.3295	261
13.3369	243
13.3443	223
13.3517	198
13.3591	173
13.3665	177
13.3739	178
13.3813	171
13.3887	169
13.3961	164
13.4035	170
13.4109	170
13.4183	165
13.4257	162
13.4331	169
13.4405	164
13.4479	150
13.4553	138
13.4627	173
13.4700	163
13.4774	162
13.4848	186
13.4922	168
13.4996	183
13.5070	188
13.5144	182
13.5218	196
13.5292	188
13.5366	218
13.5440	235
13.5514	250
13.5588	265
13.5662	262
13.5736	319
13.5810	349
13.5884	362
13.5958	425
13.6032	495
13.6106	576
13.6180	702
13.6253	830
13.6327	921
13.6401	1138
13.6475	1360
13.6549	1580
13.6623	1940
13.6697	2375
13.6771	2557
13.6845	2744
13.6919	2875
13.6993	2778
13.7067	2645
13.7141	2370
13.7215	1966
13.7289	1741
13.7363	1474
13.7437	1203
13.7511	888
13.7585	697
13.7659	483
13.7733	402
13.7806	318
13.7880	254
13.7954	244
13.8028	239
13.8102	188
13.8176	190
13.8250	201
13.8324	184
13.8398	171
13.8472	194
13.8546	173
13.8620	144
13.8694	154
13.8768	161
13.8842	159
13.8916	157
13.8990	154
13.9064	153
13.9138	153
13.9212	143
13.9286	119
13.9359	145
13.9433	169
13.9507	129
13.9581	130
13.9655	157
13.9729	140
13.9803	139
13.9877	165
13.9951	154
14.0025	142
14.0099	148
14.0173	132
14.0247	142
14.0321	136
14.0395	135
14.0469	119
14.0543	140
14.0617	128
14.0691	144
14.0765	133
14.0839	117
14.0913	128
14.0986	113
14.1060	125
14.1134	127
14.1208	126
14.1282	135
14.1356	127
14.1430	144
14.1504	122
14.1578	137
14.1652	163
14.1726	119
14.1800	136
14.1874	113
14.1948	126
14.2022	126
14.2096	122
14.2170	113
14.2244	128
14.2318	122
14.2392	123
14.2466	130
14.2539	140
14.2613	164
14.2687	147
14.2761	124
14.2835	170
14.2909	123
14.2983	164
14.3057	140
14.3131	158
14.3205	179
14.3279	168
14.3353	192
14.3427	229
14.3501	258
14.3575	280
14.3649	295
14.3723	343
14.3797	396
14.3871	400
14.3945	433
14.4019	444
14.4092	461
14.4166	417
14.4240	398
14.4314	370
14.4388	330
14.4462	271
14.4536	262
14.4610	229
14.4684	194
14.4758	197
14.4832	156
14.4906	158
14.4980	159
14.5054	139
14.5128	123
14.5202	124
14.5276	136
14.5350	132
14.5424	123
14.5498	139
14.5572	117
14.5645	123
14.5719	102
14.5793	125
14.5867	120
14.5941	112
14.6015	115
14.6089	123
14.6163	112
14.6237	123
14.6311	116
14.6385	109
14.6459	120
14.6533	121
14.6607	117
14.6681	129
14.6755	112
14.6829	135
14.6903	104
14.6977	115
14.7051	112
14.7125	126
14.7198	126
14.7272	129
14.7346	128
14.7420	118
14.7494	115
14.7568	90
14.7642	115
14.7716	134
14.7790	97
14.7864	119
14.7938	128
14.8012	101
14.8086	131
14.8160	104
14.8234	108
14.8308	125
14.8382	122
14.8456	113
14.8530	106
14.8604	83
14.8678	114
14.8751	124
14.8825	121
14.8899	114
14.8973	118
14.9047	89
14.9121	129
14.9195	106
14.9269	111
14.9343	118
14.9417	104
14.9491	114
14.9565	94
14.9639	112
14.9713	115
14.9787	111
14.9861	115
14.9935	91
15.0009	108
15.0083	105
15.0157	116
15.0231	96
15.0304	92
15.0378	110
15.0452	126
15.0526	105
15.0600	103
15.0674	110
15.0748	119
15.0822	101
15.0896	102
15.0970	108
15.1044	91
15.1118	108
15.1192	110
15.1266	121
15.1340	106
15.1414	106
15.1488	110
15.1562	115
15.1636	114
15.1710	116
15.1784	106
15.1857	119
15.1931	126
15.2005	113
15.2079	89
15.2153	77
15.2227	112
15.2301	124
15.2375	132
15.2449	103
15.2523	115
15.2597	92
15.2671	91
15.2745	99
15.2819	112
15.2893	123
15.2967	117
15.3041	103
15.3115	111
15.3189	104
15.3263	102
15.3337	103
15.3410	106
15.3484	96
15.3558	105
15.3632	101
15.3706	103
15.3780	100
15.3854	116
15.3928	93
15.4002	99
15.4076	105
15.4150	106
15.4224	120
15.4298	117
15.4372	116
15.4446	123
15.4520	98
15.4594	131
15.4668	148
15.4742	122
15.4816	139
15.4890	145
15.4963	140
15.5037	163
15.5111	180
15.5185	199
15.5259	230
15.5333	238
15.5407	235
15.5481	254
15.5555	243
15.5629	242
15.5703	214
15.5777	187
15.5851	204
15.5925	165
15.5999	176
15.6073	152
15.6147	140
15.6221	123
15.6295	135
15.6369	127
15.6443	99
15.6516	97
15.6590	110
15.6664	105
15.6738	130
15.6812	109
15.6886	89
15.6960	88
15.7034	130
15.7108	100
15.7182	120
15.7256	100
15.7330	100
15.7404	103
15.7478	108
15.7552	112
15.7626	86
15.7700	89
15.7774	84
15.7848	94
15.7922	94
15.7996	105
15.8070	95
15.8143	104
15.8217	91
15.8291	110
15.8365	86
15.8439	98
15.8513	81
15.8587	80
15.8661	98
15.8735	91
15.8809	83
15.8883	111
15.8957	113
15.9031	108
15.9105	87
15.9179	101
15.9253	102
15.9327	95
15.9401	107
15.9475	89
15.9549	97
15.9623	104
15.9696	101
15.9770	84
15.9844	101
15.9918	107
15.9992	106
16.0066	93
16.0140	114
16.0214	80
16.0288	96
16.0362	103
16.0436	110
16.0510	109
16.0584	102
16.0658	85
16.0732	104
16.0806	84
16.0880	96
16.0954	123
16.1028	100
16.1102	98
16.1176	112
16.1249	106
16.1323	87
16.1397	88
16.1471	102
16.1545	109
16.1619	109
16.1693	98
16.1767	96
16.1841	112
16.1915	91
16.1989	89
16.2063	89
16.2137	117
16.2211	119
16.2285	103
16.2359	121
16.2433	87
16.2507	109
16.2581	95
16.2655	98
16.2729	99
16.2802	109
16.2876	89
16.2950	83
16.3024	115
16.3098	114
16.3172	117
16.3246	112
16.3320	113
16.3394	103
16.3468	107
16.3542	114
16.3616	96
16.3690	89
16.3764	99
16.3838	100
16.3912	99
16.3986	111
16.4060	101
16.4134	105
16.4208	110
16.4282	114
16.4355	106
16.4429	106
16.4503	109
16.4577	112
16.4651	122
16.4725	109
16.4799	122
16.4873	90
16.4947	100
16.5021	120
16.5095	94
16.5169	109
16.5243	114
16.5317	142
16.5391	134
16.5465	112
16.5539	131
16.5613	121
16.5687	129
16.5761	125
16.5835	110
16.5908	121
16.5982	123
16.6056	127
16.6130	158
16.6204	121
16.6278	142
16.6352	142
16.6426	127
16.6500	131
16.6574	147
16.6648	150
16.6722	166
16.6796	181
16.6870	186
16.6944	187
16.7018	211
16.7092	195
16.7166	211
16.7240	298
16.7314	290
16.7388	392
16.7461	407
16.7535	477
16.7609	558
16.7683	649
16.7757	761
16.7831	900
16.7905	1129
16.7979	1361
16.8053	1563
16.8127	1697
16.8201	1832
16.8275	1931
16.8349	2017
16.8423	1862
16.8497	1693
16.8571	1568
16.8645	1462
16.8719	1241
16.8793	1046
16.8867	921
16.8941	758
16.9014	591
16.9088	532
16.9162	419
16.9236	384
16.9310	338
16.9384	323
16.9458	285
16.9532	291
16.9606	312
16.9680	314
16.9754	368
16.9828	425
16.9902	495
16.9976	605
17.0050	684
17.0124	768
17.0198	907
17.0272	1071
17.0346	1148
17.0420	1136
17.0494	1176
17.0567	1108
17.0641	1009
17.0715	940
17.0789	868
17.0863	712
17.0937	592
17.1011	520
17.1085	435
17.1159	351
17.1233	279
17.1307	235
17.1381	212
17.1455	180
17.1529	154
17.1603	157
17.1677	131
17.1751	154
17.1825	160
17.1899	128
17.1973	140
17.2047	123
17.2120	105
17.2194	138
17.2268	140
17.2342	140
17.2416	142
17.2490	130
17.2564	129
17.2638	121
17.2712	124
17.2786	126
17.2860	112
17.2934	114
17.3008	122
17.3082	122
17.3156	127
17.3230	122
17.3304	115
17.3378	134
17.3452	126
17.3526	131
17.3600	127
17.3674	96
17.3747	131
17.3821	105
17.3895	119
17.3969	138
17.4043	135
17.4117	148
17.4191	138
17.4265	110
17.4339	122
17.4413	109
17.4487	120
17.4561	106
17.4635	125
17.4709	109
17.4783	115
17.4857	105
17.4931	123
17.5005	139
17.5079	126
17.5153	120
17.5227	128
17.5300	107
17.5374	122
17.5448	118
17.5522	134
17.5596	122
17.5670	134
17.5744	133
17.5818	125
17.5892	126
17.5966	120
17.6040	155
17.6114	122
17.6188	144
17.6262	137
17.6336	145
17.6410	155
17.6484	141
17.6558	141
17.6632	165
17.6706	150
17.6780	166
17.6853	177
17.6927	194
17.7001	201
17.7075	203
17.7149	235
17.7223	238
17.7297	300
17.7371	330
17.7445	373
17.7519	439
17.7593	582
17.7667	617
17.7741	754
17.7815	920
17.7889	1080
17.7963	1236
17.8037	1438
17.8111	1621
17.8185	1772
17.8259	1908
17.8333	2009
17.8406	2032
17.8480	2031
17.8554	2014
17.8628	1928
17.8702	1766
17.8776	1540
17.8850	1372
17.8924	1150
17.8998	936
17.9072	848
17.9146	693
17.9220	544
17.9294	465
17.9368	354
17.9442	287
17.9516	273
17.9590	244
17.9664	223
17.9738	206
17.9812	192
17.9886	202
17.9959	194
18.0033	171
18.0107	168
18.0181	146
18.0255	157
18.0329	180
18.0403	158
18.0477	151
18.0551	137
18.0625	165
18.0699	150
18.0773	128
18.0847	145
18.0921	146
18.0995	136
18.1069	150
18.1143	146
18.1217	121
18.1291	134
18.1365	142
18.1439	154
18.1512	132
18.1586	123
18.1660	137
18.1734	139
18.1808	135
18.1882	125
18.1956	116
18.2030	135
18.2104	130
18.2178	135
18.2252	122
18.2326	120
18.2400	131
18.2474	145
18.2548	156
18.2622	138
18.2696	116
18.2770	144
18.2844	144
18.2918	138
18.2992	160
18.3065	144
18.3139	135
18.3213	130
18.3287	151
18.3361	131
18.3435	145
18.3509	150
18.3583	160
18.3657	139
18.3731	137
18.3805	168
18.3879	173
18.3953	148
18.4027	162
18.4101	176
18.4175	168
18.4249	180
18.4323	204
18.4397	228
18.4471	273
18.4545	279
18.4618	311
18.4692	370
18.4766	391
18.4840	483
18.4914	563
18.4988	696
18.5062	825
18.5136	1022
18.5210	1229
18.5284	1513
18.5358	1819
18.5432	2231
18.5506	2413
18.5580	2633
18.5654	2672
18.5728	2749
18.5802	2479
18.5876	2362
18.5950	2198
18.6024	2051
18.6098	1767
18.6171	1657
18.6245	1502
18.6319	1321
18.6393	1085
18.6467	950
18.6541	739
18.6615	672
18.6689	531
18.6763	489
18.6837	455
18.6911	410
18.6985	339
18.7059	327
18.7133	301
18.7207	248
18.7281	215
18.7355	227
18.7429	194
18.7503	177
18.7577	161
18.7651	152
18.7724	159
18.7798	151
18.7872	157
18.7946	130
18.8020	157
18.8094	140
18.8168	162
18.8242	141
18.8316	142
18.8390	130
18.8464	113
18.8538	141
18.8612	137
18.8686	135
18.8760	146
18.8834	144
18.8908	123
18.8982	124
18.9056	147
18.9130	120
18.9204	119
18.9278	148
18.9351	129
18.9425	119
18.9499	132
18.9573	122
18.9647	118
18.9721	105
18.9795	135
18.9869	126
18.9943	173
19.0017	130
19.0091	126
19.0165	102
19.0239	133
19.0313	119
19.0387	108
19.0461	120
19.0535	95
19.0609	106
19.0683	116
19.0757	125
19.0831	129
19.0904	110
19.0978	99
19.1052	118
19.1126	105
19.1200	102
19.1274	120
19.1348	121
19.1422	118
19.1496	95
19.1570	126
19.1644	117
19.1718	104
19.1792	98
19.1866	109
19.1940	109
19.2014	123
19.2088	102
19.2162	111
19.2236	117
19.2310	126
19.2384	103
19.2457	112
19.2531	103
19.2605	89
19.2679	118
19.2753	119
19.2827	125
19.2901	117
19.2975	122
19.3049	107
19.3123	113
19.3197	110
19.3271	101
19.3345	129
19.3419	111
19.3493	113
19.3567	113
19.3641	115
19.3715	108
19.3789	114
19.3863	155
19.3937	168
19.4010	159
19.4084	169
19.4158	190
19.4232	216
19.4306	260
19.4380	260
19.4454	316
19.4528	314
19.4602	358
19.4676	418
19.4750	393
19.4824	367
19.4898	379
19.4972	340
19.5046	342
19.5120	317
19.5194	287
19.5268	279
19.5342	237
19.5416	229
19.5490	204
19.5563	183
19.5637	143
19.5711	142
19.5785	137
19.5859	119
19.5933	130
19.6007	116
19.6081	135
19.6155	122
19.6229	114
19.6303	118
19.6377	124
19.6451	106
19.6525	125
19.6599	132
19.6673	102
19.6747	105
19.6821	114
19.6895	113
19.6969	125
19.7043	99
19.7116	128
19.7190	113
19.7264	89
19.7338	92
19.7412	102
19.7486	107
19.7560	104
19.7634	106
19.7708	106
19.7782	108
19.7856	116
19.7930	118
19.8004	129
19.8078	112
19.8152	111
19.8226	111
19.8300	122
19.8374	115
19.8448	136
19.8522	121
19.8596	121
19.8669	117
19.8743	118
19.8817	134
19.8891	121
19.8965	112
19.9039	110
19.9113	138
19.9187	102
19.9261	100
19.9335	111
19.9409	105
19.9483	111
19.9557	121
19.9631	120
19.9705	119
19.9779	111
19.9853	122
19.9927	102
20.0001	107
20.0075	117
20.0149	126
20.0222	126
20.0296	100
20.0370	114
20.0444	117
20.0518	126
20.0592	106
20.0666	111
20.0740	108
20.0814	116
20.0888	113
20.0962	101
20.1036	132
20.1110	124
20.1184	113
20.1258	128
20.1332	109
20.1406	117
20.1480	129
20.1554	123
20.1628	113
20.1702	137
20.1775	101
20.1849	137
20.1923	113
20.1997	111
20.2071	119
20.2145	129
20.2219	121
20.2293	130
20.2367	143
20.2441	157
20.2515	138
20.2589	115
20.2663	153
20.2737	132
20.2811	134
20.2885	135
20.2959	153
20.3033	122
20.3107	138
20.3181	138
20.3255	138
20.3328	128
20.3402	150
20.3476	160
20.3550	192
20.3624	173
20.3698	179
20.3772	188
20.3846	213
20.3920	208
20.3994	197
20.4068	253
20.4142	270
20.4216	350
20.4290	350
20.4364	426
20.4438	517
20.4512	608
20.4586	629
20.4660	806
20.4734	955
20.4808	1209
20.4882	1526
20.4955	1850
20.5029	2081
20.5103	2448
20.5177	2567
20.5251	2737
20.5325	2736
20.5399	2644
20.5473	2441
20.5547	2295
20.5621	2021
20.5695	1930
20.5769	1751
20.5843	1563
20.5917	1294
20.5991	1085
20.6065	853
20.6139	779
20.6213	575
20.6287	465
20.6361	402
20.6435	331
20.6508	248
20.6582	263
20.6656	234
20.6730	237
20.6804	213
20.6878	204
20.6952	185
20.7026	214
20.7100	200
20.7174	163
20.7248	180
20.7322	145
20.7396	172
20.7470	157
20.7544	168
20.7618	154
20.7692	176
20.7766	157
20.7840	164
20.7914	161
20.7988	142
20.8061	161
20.8135	168
20.8209	157
20.8283	162
20.8357	179
20.8431	173
20.8505	192
20.8579	212
20.8653	210
20.8727	253
20.8801	260
20.8875	292
20.8949	321
20.9023	415
20.9097	460
20.9171	552
20.9245	610
20.9319	718
20.9393	748
20.9467	791
20.9541	767
20.9614	735
20.9688	662
20.9762	613
20.9836	572
20.9910	502
20.9984	499
21.0058	455
21.0132	418
21.0206	347
21.0280	325
21.0354	262
21.0428	228
21.0502	221
21.0576	206
21.0650	202
21.0724	143
21.0798	162
21.0872	157
21.0946	182
21.1020	140
21.1094	149
21.1167	181
21.1241	137
21.1315	144
21.1389	141
21.1463	147
21.1537	178
21.1611	153
21.1685	146
21.1759	144
21.1833	146
21.1907	147
21.1981	160
21.2055	129
21.2129	162
21.2203	179
21.2277	165
21.2351	179
21.2425	156
21.2499	159
21.2573	173
21.2647	157
21.2720	171
21.2794	169
21.2868	169
21.2942	191
21.3016	160
21.3090	157
21.3164	161
21.3238	155
21.3312	177
21.3386	160
21.3460	179
21.3534	158
21.3608	163
21.3682	175
21.3756	190
21.3830	188
21.3904	218
21.3978	208
21.4052	186
21.4126	191
21.4200	225
21.4273	226
21.4347	221
21.4421	265
21.4495	273
21.4569	340
21.4643	368
21.4717	508
21.4791	528
21.4865	624
21.4939	751
21.5013	907
21.5087	948
21.5161	1093
21.5235	1139
21.5309	1070
21.5383	1066
21.5457	1040
21.5531	889
21.5605	829
21.5679	762
21.5753	739
21.5826	680
21.5900	623
21.5974	535
21.6048	501
21.6122	407
21.6196	381
21.6270	374
21.6344	360
21.6418	392
21.6492	414
21.6566	443
21.6640	497
21.6714	605
21.6788	692
21.6862	756
21.6936	815
21.7010	864
21.7084	953
21.7158	916
21.7232	940
21.7306	987
21.7379	905
21.7453	838
21.7527	872
21.7601	846
21.7675	748
21.7749	727
21.7823	700
21.7897	604
21.7971	505
21.8045	518
21.8119	487
21.8193	428
21.8267	436
21.8341	414
21.8415	486
21.8489	459
21.8563	497
21.8637	523
21.8711	563
21.8785	700
21.8859	841
21.8932	889
21.9006	1073
21.9080	1304
21.9154	1651
21.9228	1981
21.9302	2489
21.9376	3156
21.9450	3962
21.9524	4878
21.9598	5693
21.9672	6325
21.9746	6557
21.9820	6781
21.9894	6577
21.9968	6142
22.0042	5662
22.0116	5005
22.0190	4676
22.0264	4333
22.0338	3838
22.0412	3507
22.0485	3069
22.0559	2508
22.0633	1981
22.0707	1582
22.0781	1138
22.0855	863
22.0929	724
22.1003	615
22.1077	504
22.1151	467
22.1225	382
22.1299	404
22.1373	335
22.1447	312
22.1521	306
22.1595	298
22.1669	275
22.1743	271
22.1817	243
22.1891	283
22.1965	267
22.2039	260
22.2112	229
22.2186	267
22.2260	233
22.2334	230
22.2408	240
22.2482	224
22.2556	228
22.2630	200
22.2704	206
22.2778	179
22.2852	179
22.2926	184
22.3000	171
22.3074	167
22.3148	208
22.3222	172
22.3296	169
22.3370	181
22.3444	171
22.3518	171
22.3592	185
22.3665	195
22.3739	179
22.3813	155
22.3887	193
22.3961	170
22.4035	180
22.4109	161
22.4183	165
22.4257	185
22.4331	174
22.4405	181
22.4479	184
22.4553	157
22.4627	172
22.4701	156
22.4775	154
22.4849	156
22.4923	154
22.4997	164
22.5071	163
22.5145	167
22.5218	177
22.5292	161
22.5366	164
22.5440	133
22.5514	168
22.5588	167
22.5662	143
22.5736	157
22.5810	167
22.5884	156
22.5958	129
22.6032	159
22.6106	160
22.6180	171
22.6254	147
22.6328	158
22.6402	186
22.6476	191
22.6550	211
22.6624	218
22.6698	250
22.6771	245
22.6845	250
22.6919	287
22.6993	356
22.7067	425
22.7141	515
22.7215	565
22.7289	679
22.7363	849
22.7437	902
22.7511	970
22.7585	1003
22.7659	866
22.7733	875
22.7807	816
22.7881	710
22.7955	684
22.8029	647
22.8103	587
22.8177	537
22.8251	549
22.8324	420
22.8398	414
22.8472	303
22.8546	272
22.8620	244
22.8694	200
22.8768	199
22.8842	186
22.8916	172
22.8990	180
22.9064	153
22.9138	182
22.9212	181
22.9286	149
22.9360	139
22.9434	154
22.9508	148
22.9582	169
22.9656	150
22.9730	171
22.9804	167
22.9877	149
22.9951	143
23.0025	127
23.0099	142
23.0173	141
23.0247	149
23.0321	132
23.0395	148
23.0469	153
23.0543	160
23.0617	141
23.0691	118
23.0765	140
23.0839	117
23.0913	122
23.0987	147
23.1061	124
23.1135	141
23.1209	106
23.1283	149
23.1357	139
23.1430	160
23.1504	146
23.1578	142
23.1652	141
23.1726	152
23.1800	138
23.1874	120
23.1948	135
23.2022	127
23.2096	143
23.2170	163
23.2244	151
23.2318	141
23.2392	130
23.2466	149
23.2540	128
23.2614	160
23.2688	156
23.2762	139
23.2836	149
23.2910	155
23.2983	137
23.3057	136
23.3131	141
23.3205	155
23.3279	135
23.3353	128
23.3427	162
23.3501	155
23.3575	155
23.3649	142
23.3723	151
23.3797	146
23.3871	148
23.3945	188
23.4019	160
23.4093	175
23.4167	169
23.4241	212
23.4315	189
23.4389	212
23.4463	257
23.4536	277
23.4610	310
23.4684	352
23.4758	382
23.4832	376
23.4906	380
23.4980	343
23.5054	372
23.5128	340
23.5202	312
23.5276	320
23.5350	296
23.5424	301
23.5498	218
23.5572	261
23.5646	209
23.5720	221
23.5794	195
23.5868	191
23.5942	162
23.6016	177
23.6089	159
23.6163	172
23.6237	173
23.6311	156
23.6385	169
23.6459	157
23.6533	148
23.6607	156
23.6681	145
23.6755	169
23.6829	156
23.6903	154
23.6977	169
23.7051	134
23.7125	141
23.7199	149
23.7273	150
23.7347	139
23.7421	155
23.7495	159
23.7569	159
23.7643	147
23.7716	135
23.7790	154
23.7864	175
23.7938	177
23.8012	169
23.8086	160
23.8160	187
23.8234	167
23.8308	179
23.8382	179
23.8456	188
23.8530	195
23.8604	216
23.8678	198
23.8752	227
23.8826	263
23.8900	246
23.8974	268
23.9048	360
23.9122	404
23.9196	464
23.9269	530
23.9343	644
23.9417	758
23.9491	881
23.9565	1142
23.9639	1324
23.9713	1516
23.9787	1708
23.9861	1795
23.9935	1915
24.0009	1867
24.0083	1776
24.0157	1707
24.0231	1541
24.0305	1459
24.0379	1431
24.0453	1322
24.0527	1260
24.0601	1095
24.0675	1016
24.0749	907
24.0822	699
24.0896	638
24.0970	527
24.1044	411
24.1118	360
24.1192	299
24.1266	304
24.1340	245
24.1414	251
24.1488	249
24.1562	228
24.1636	224
24.1710	210
24.1784	186
24.1858	200
24.1932	194
24.2006	189
24.2080	187
24.2154	209
24.2228	190
24.2302	235
24.2375	215
24.2449	221
24.2523	233
24.2597	192
24.2671	280
24.2745	294
24.2819	318
24.2893	329
24.2967	333
24.3041	360
24.3115	358
24.3189	425
24.3263	450
24.3337	460
24.3411	544
24.3485	617
24.3559	764
24.3633	886
24.3707	1015
24.3781	1192
24.3855	1265
24.3928	1249
24.4002	1320
24.4076	1168
24.4150	1087
24.4224	972
24.4298	955
24.4372	868
24.4446	798
24.4520	806
24.4594	690
24.4668	647
24.4742	540
24.4816	434
24.4890	412
24.4964	320
24.5038	325
24.5112	267
24.5186	223
24.5260	206
24.5334	177
24.5408	204
24.5481	184
24.5555	187
24.5629	203
24.5703	182
24.5777	185
24.5851	163
24.5925	159
24.5999	160
24.6073	175
24.6147	148
24.6221	197
24.6295	164
24.6369	139
24.6443	174
24.6517	182
24.6591	163
24.6665	171
24.6739	172
24.6813	166
24.6887	162
24.6961	186
24.7034	196
24.7108	193
24.7182	174
24.7256	207
24.7330	204
24.7404	196
24.7478	209
24.7552	254
24.7626	307
24.7700	319
24.7774	407
24.7848	449
24.7922	421
24.7996	501
24.8070	453
24.8144	437
24.8218	381
24.8292	367
24.8366	383
24.8440	360
24.8514	368
24.8587	335
24.8661	323
24.8735	302
24.8809	277
24.8883	234
24.8957	224
24.9031	216
24.9105	166
24.9179	170
24.9253	183
24.9327	186
24.9401	157
24.9475	181
24.9549	167
24.9623	174
24.9697	161
24.9771	162
24.9845	163
24.9919	154
24.9993	143
25.0067	194
25.0140	164
25.0214	186
25.0288	165
25.0362	188
25.0436	162
25.0510	161
25.0584	158
25.0658	179
25.0732	168
25.0806	161
25.0880	179
25.0954	136
25.1028	145
25.1102	146
25.1176	170
25.1250	152
25.1324	157
25.1398	157
25.1472	161
25.1546	157
25.1620	152
25.1693	171
25.1767	154
25.1841	149
25.1915	157
25.1989	170
25.2063	152
25.2137	174
25.2211	155
25.2285	156
25.2359	169
25.2433	153
25.2507	132
25.2581	150
25.2655	165
25.2729	185
25.2803	162
25.2877	172
25.2951	187
25.3025	173
25.3099	166
25.3173	166
25.3247	169
25.3320	192
25.3394	186
25.3468	172
25.3542	183
25.3616	229
25.3690	203
25.3764	202
25.3838	256
25.3912	248
25.3986	279
25.4060	267
25.4134	274
25.4208	283
25.4282	408
25.4356	428
25.4430	474
25.4504	605
25.4578	708
25.4652	901
25.4726	1023
25.4800	1200
25.4873	1325
25.4947	1457
25.5021	1529
25.5095	1561
25.5169	1534
25.5243	1344
25.5317	1190
25.5391	1136
25.5465	1131
25.5539	1083
25.5613	974
25.5687	1033
25.5761	945
25.5835	890
25.5909	865
25.5983	815
25.6057	773
25.6131	778
25.6205	802
25.6279	779
25.6353	836
25.6426	731
25.6500	674
25.6574	661
25.6648	630
25.6722	588
25.6796	530
25.6870	548
25.6944	525
25.7018	494
25.7092	492
25.7166	418
25.7240	407
25.7314	337
25.7388	318
25.7462	298
25.7536	290
25.7610	248
25.7684	260
25.7758	253
25.7832	296
25.7906	325
25.7979	351
25.8053	373
25.8127	397
25.8201	443
25.8275	496
25.8349	564
25.8423	594
25.8497	724
25.8571	783
25.8645	753
25.8719	779
25.8793	772
25.8867	707
25.8941	654
25.9015	599
25.9089	626
25.9163	571
25.9237	567
25.9311	548
25.9385	499
25.9459	457
25.9532	399
25.9606	359
25.9680	370
25.9754	294
25.9828	275
25.9902	255
25.9976	263
26.0050	235
26.0124	226
26.0198	216
26.0272	183
26.0346	214
26.0420	178
26.0494	217
26.0568	177
26.0642	180
26.0716	171
26.0790	210
26.0864	194
26.0938	207
26.1012	170
26.1085	184
26.1159	197
26.1233	214
26.1307	188
26.1381	180
26.1455	187
26.1529	190
26.1603	194
26.1677	202
26.1751	189
26.1825	180
26.1899	203
26.1973	199
26.2047	195
26.2121	185
26.2195	188
26.2269	177
26.2343	190
26.2417	175
26.2491	172
26.2565	195
26.2638	227
26.2712	236
26.2786	198
26.2860	214
26.2934	245
26.3008	204
26.3082	231
26.3156	219
26.3230	229
26.3304	259
26.3378	267
26.3452	289
26.3526	261
26.3600	268
26.3674	299
26.3748	326
26.3822	316
26.3896	330
26.3970	371
26.4044	385
26.4118	447
26.4191	458
26.4265	557
26.4339	584
26.4413	689
26.4487	794
26.4561	926
26.4635	1130
26.4709	1341
26.4783	1588
26.4857	2048
26.4931	2494
26.5005	2972
26.5079	3769
26.5153	4357
26.5227	4870
26.5301	5114
26.5375	5254
26.5449	5022
26.5523	4793
26.5597	4399
26.5671	4038
26.5744	3725
26.5818	3496
26.5892	3427
26.5966	3359
26.6040	3063
26.6114	2764
26.6188	2511
26.6262	2164
26.6336	1808
26.6410	1419
26.6484	1141
26.6558	901
26.6632	743
26.6706	648
26.6780	576
26.6854	465
26.6928	453
26.7002	400
26.7076	411
26.7150	382
26.7224	346
26.7297	346
26.7371	304
26.7445	292
26.7519	285
26.7593	251
26.7667	284
26.7741	265
26.7815	253
26.7889	253
26.7963	234
26.8037	247
26.8111	275
26.8185	207
26.8259	232
26.8333	227
26.8407	241
26.8481	203
26.8555	208
26.8629	224
26.8703	190
26.8777	195
26.8850	202
26.8924	190
26.8998	186
26.9072	209
26.9146	173
26.9220	190
26.9294	213
26.9368	178
26.9442	172
26.9516	181
26.9590	172
26.9664	182
26.9738	167
26.9812	181
26.9886	184
26.9960	178
27.0034	162
27.0108	185
27.0182	162
27.0256	167
27.0330	156
27.0404	188
27.0477	156
27.0551	207
27.0625	150
27.0699	190
27.0773	185
27.0847	152
27.0921	159
27.0995	171
27.1069	176
27.1143	168
27.1217	162
27.1291	175
27.1365	154
27.1439	158
27.1513	163
27.1587	173
27.1661	172
27.1735	163
27.1809	140
27.1883	163
27.1957	162
27.2030	153
27.2104	167
27.2178	191
27.2252	157
27.2326	177
27.2400	170
27.2474	163
27.2548	178
27.2622	175
27.2696	165
27.2770	191
27.2844	184
27.2918	194
27.2992	190
27.3066	197
27.3140	191
27.3214	195
27.3288	242
27.3362	227
27.3436	224
27.3510	263
27.3583	222
27.3657	251
27.3731	334
27.3805	313
27.3879	379
27.3953	426
27.4027	418
27.4101	487
27.4175	530
27.4249	551
27.4323	669
27.4397	682
27.4471	827
27.4545	991
27.4619	1149
27.4693	1325
27.4767	1386
27.4841	1461
27.4915	1477
27.4989	1418
27.5063	1306
27.5136	1134
27.5210	1062
27.5284	956
27.5358	873
27.5432	891
27.5506	915
27.5580	857
27.5654	779
27.5728	740
27.5802	652
27.5876	555
27.5950	489
27.6024	435
27.6098	428
27.6172	346
27.6246	314
27.6320	336
27.6394	274
27.6468	265
27.6542	260
27.6616	264
27.6689	250
27.6763	241
27.6837	252
27.6911	258
27.6985	234
27.7059	224
27.7133	219
27.7207	198
27.7281	208
27.7355	190
27.7429	174
27.7503	195
27.7577	182
27.7651	186
27.7725	159
27.7799	170
27.7873	157
27.7947	176
27.8021	152
27.8095	174
27.8169	164
27.8242	157
27.8316	163
27.8390	150
27.8464	185
27.8538	167
27.8612	169
27.8686	150
27.8760	163
27.8834	160
27.8908	138
27.8982	169
27.9056	145
27.9130	156
27.9204	154
27.9278	176
27.9352	154
27.9426	151
27.9500	143
27.9574	165
27.9648	137
27.9722	140
27.9795	174
27.9869	153
27.9943	151
28.0017	153
28.0091	163
28.0165	159
28.0239	156
28.0313	162
28.0387	153
28.0461	173
28.0535	138
28.0609	146
28.0683	131
28.0757	146
28.0831	154
28.0905	142
28.0979	133
28.1053	168
28.1127	134
28.1201	148
28.1275	148
28.1348	141
28.1422	161
28.1496	149
28.1570	154
28.1644	163
28.1718	162
28.1792	171
28.1866	148
28.1940	172
28.2014	154
28.2088	175
28.2162	140
28.2236	157
28.2310	168
28.2384	177
28.2458	186
28.2532	157
28.2606	167
28.2680	181
28.2754	182
28.2828	164
28.2901	185
28.2975	199
28.3049	187
28.3123	185
28.3197	192
28.3271	234
28.3345	199
28.3419	219
28.3493	225
28.3567	274
28.3641	304
28.3715	282
28.3789	368
28.3863	402
28.3937	471
28.4011	596
28.4085	668
28.4159	812
28.4233	966
28.4307	1211
28.4381	1346
28.4454	1325
28.4528	1456
28.4602	1538
28.4676	1529
28.4750	1324
28.4824	1151
28.4898	1067
28.4972	1058
28.5046	1019
28.5120	954
28.5194	1020
28.5268	983
28.5342	910
28.5416	818
28.5490	699
28.5564	619
28.5638	473
28.5712	437
28.5786	378
28.5860	313
28.5934	281
28.6008	256
28.6081	220
28.6155	252
28.6229	197
28.6303	203
28.6377	204
28.6451	187
28.6525	171
28.6599	170
28.6673	174
28.6747	145
28.6821	163
28.6895	177
28.6969	171
28.7043	142
28.7117	159
28.7191	154
28.7265	162
28.7339	154
28.7413	165
28.7487	169
28.7561	165
28.7634	150
28.7708	165
28.7782	178
28.7856	168
28.7930	153
28.8004	163
28.8078	165
28.8152	194
28.8226	202
28.8300	174
28.8374	180
28.8448	181
28.8522	198
28.8596	235
28.8670	220
28.8744	232
28.8818	278
28.8892	267
28.8966	291
28.9040	311
28.9114	327
28.9187	280
28.9261	331
28.9335	287
28.9409	371
28.9483	308
28.9557	343
28.9631	365
28.9705	464
28.9779	445
28.9853	531
28.9927	554
29.0001	591
29.0075	625
29.0149	603
29.0223	626
29.0297	553
29.0371	498
29.0445	455
29.0519	428
29.0593	397
29.0667	396
29.0740	367
29.0814	378
29.0888	390
29.0962	354
29.1036	324
29.1110	301
29.1184	235
29.1258	219
29.1332	196
29.1406	181
29.1480	174
29.1554	178
29.1628	174
29.1702	154
29.1776	140
29.1850	119
29.1924	142
29.1998	141
29.2072	142
29.2146	135
29.2220	130
29.2293	128
29.2367	119
29.2441	127
29.2515	128
29.2589	160
29.2663	132
29.2737	116
29.2811	133
29.2885	131
29.2959	133
29.3033	130
29.3107	130
29.3181	124
29.3255	126
29.3329	118
29.3403	133
29.3477	104
29.3551	138
29.3625	105
29.3699	114
29.3773	137
29.3846	121
29.3920	109
29.3994	107
29.4068	126
29.4142	139
29.4216	131
29.4290	123
29.4364	112
29.4438	117
29.4512	120
29.4586	109
29.4660	114
29.4734	141
29.4808	135
29.4882	131
29.4956	143
29.5030	146
29.5104	144
29.5178	155
29.5252	163
29.5326	153
29.5399	160
29.5473	145
29.5547	157
29.5621	139
29.5695	158
29.5769	130
29.5843	156
29.5917	132
29.5991	135
29.6065	153
29.6139	141
29.6213	122
29.6287	136
29.6361	161
29.6435	124
29.6509	124
29.6583	130
29.6657	117
29.6731	127
29.6805	108
29.6879	116
29.6952	126
29.7026	125
29.7100	120
29.7174	131
29.7248	125
29.7322	108
29.7396	104
29.7470	113
29.7544	117
29.7618	101
29.7692	108
29.7766	118
29.7840	140
29.7914	122
29.7988	105
29.8062	130
29.8136	137
29.8210	136
29.8284	105
29.8358	108
29.8432	122
29.8505	108
29.8579	115
29.8653	119
29.8727	115
29.8801	133
29.8875	107
29.8949	100
29.9023	122
29.9097	123
29.9171	119
29.9245	89
29.9319	101
29.9393	93
29.9467	117
29.9541	119
29.9615	117
29.9689	114
29.9763	110
29.9837	97
29.9911	124
29.9985	126
30.0058	114
30.0132	117
30.0206	92
30.0280	103
30.0354	107
30.0428	120
30.0502	110
30.0576	128
30.0650	131
30.0724	93
30.0798	124
30.0872	106
30.0946	110
30.1020	119
30.1094	125
30.1168	102
30.1242	103
30.1316	111
30.1390	103
30.1464	116
30.1538	123
30.1612	107
30.1685	96
30.1759	108
30.1833	97
30.1907	100
30.1981	98
30.2055	125
30.2129	121
30.2203	127
30.2277	122
30.2351	103
30.2425	101
30.2499	101
30.2573	120
30.2647	108
30.2721	132
30.2795	110
30.2869	121
30.2943	113
30.3017	95
30.3091	120
30.3165	97
30.3238	121
30.3312	112
30.3386	113
30.3460	125
30.3534	93
30.3608	128
30.3682	136
30.3756	143
30.3830	129
30.3904	120
30.3978	128
30.4052	116
30.4126	107
30.4200	110
30.4274	118
30.4348	127
30.4422	115
30.4496	103
30.4570	131
30.4644	135
30.4718	132
30.4791	148
30.4865	144
30.4939	157
30.5013	162
30.5087	179
30.5161	173
30.5235	206
30.5309	194
30.5383	182
30.5457	203
30.5531	198
30.5605	192
30.5679	195
30.5753	166
30.5827	156
30.5901	182
30.5975	161
30.6049	183
30.6123	189
30.6197	206
30.6271	224
30.6344	195
30.6418	196
30.6492	229
30.6566	206
30.6640	164
30.6714	189
30.6788	176
30.6862	137
30.6936	166
30.7010	139
30.7084	157
30.7158	159
30.7232	159
30.7306	152
30.7380	151
30.7454	153
30.7528	130
30.7602	125
30.7676	135
30.7750	141
30.7824	125
30.7897	114
30.7971	137
30.8045	140
30.8119	89
30.8193	111
30.8267	132
30.8341	105
30.8415	117
30.8489	111
30.8563	94
30.8637	120
30.8711	111
30.8785	107
30.8859	104
30.8933	103
30.9007	110
30.9081	104
30.9155	125
30.9229	115
30.9303	108
30.9377	115
30.9450	107
30.9524	97
30.9598	107
30.9672	106
30.9746	134
30.9820	116
30.9894	125
30.9968	98
31.0042	112
31.0116	112
31.0190	88
31.0264	120
31.0338	120
31.0412	102
31.0486	121
31.0560	105
31.0634	115
31.0708	108
31.0782	119
31.0856	111
31.0930	111
31.1003	113
31.1077	115
31.1151	114
31.1225	130
31.1299	115
31.1373	119
31.1447	105
31.1521	115
31.1595	128
31.1669	116
31.1743	106
31.1817	105
31.1891	98
31.1965	116
31.2039	122
31.2113	91
31.2187	133
31.2261	104
31.2335	123
31.2409	129
31.2483	113
31.2556	127
31.2630	135
31.2704	142
31.2778	128
31.2852	117
31.2926	136
31.3000	157
31.3074	136
31.3148	158
31.3222	151
31.3296	162
31.3370	148
31.3444	149
31.3518	170
31.3592	190
31.3666	196
31.3740	214
31.3814	241
31.3888	293
31.3962	307
31.4036	348
31.4109	364
31.4183	397
31.4257	394
31.4331	386
31.4405	383
31.4479	361
31.4553	369
31.4627	369
31.4701	336
31.4775	365
31.4849	347
31.4923	341
31.4997	320
31.5071	294
31.5145	307
31.5219	288
31.5293	280
31.5367	265
31.5441	253
31.5515	215
31.5589	234
31.5662	229
31.5736	226
31.5810	256
31.5884	252
31.5958	267
31.6032	208
31.6106	206
31.6180	211
31.6254	195
31.6328	194
31.6402	189
31.6476	177
31.6550	160
31.6624	166
31.6698	184
31.6772	186
31.6846	172
31.6920	160
31.6994	169
31.7068	169
31.7142	130
31.7215	153
31.7289	148
31.7363	118
31.7437	140
31.7511	125
31.7585	127
31.7659	142
31.7733	119
31.7807	124
31.7881	136
31.7955	148
31.8029	122
31.8103	123
31.8177	118
31.8251	126
31.8325	95
31.8399	120
31.8473	143
31.8547	134
31.8621	147
31.8695	145
31.8769	201
31.8842	180
31.8916	220
31.8990	222
31.9064	224
31.9138	277
31.9212	238
31.9286	230
31.9360	225
31.9434	221
31.9508	202
31.9582	199
31.9656	223
31.9730	221
31.9804	203
31.9878	208
31.9952	207
32.0026	201
32.0100	204
32.0174	202
32.0248	167
32.0322	180
32.0395	164
32.0469	139
32.0543	131
32.0617	127
32.0691	120
32.0765	116
32.0839	137
32.0913	123
32.0987	125
32.1061	117
32.1135	109
32.1209	130
32.1283	118
32.1357	119
32.1431	111
32.1505	115
32.1579	110
32.1653	117
32.1727	133
32.1801	123
32.1875	122
32.1948	102
32.2022	110
32.2096	80
32.2170	120
32.2244	109
32.2318	114
32.2392	100
32.2466	107
32.2540	100
32.2614	112
32.2688	108
32.2762	134
32.2836	133
32.2910	87
32.2984	117
32.3058	107
32.3132	113
32.3206	96
32.3280	82
32.3354	96
32.3428	85
32.3501	105
32.3575	87
32.3649	93
32.3723	112
32.3797	102
32.3871	124
32.3945	97
32.4019	109
32.4093	92
32.4167	111
32.4241	110
32.4315	116
32.4389	102
32.4463	104
32.4537	91
32.4611	102
32.4685	95
32.4759	126
32.4833	112
32.4907	108
32.4981	108
32.5054	110
32.5128	112
32.5202	121
32.5276	93
32.5350	97
32.5424	109
32.5498	100
32.5572	92
32.5646	89
32.5720	108
32.5794	110
32.5868	100
32.5942	108
32.6016	102
32.6090	106
32.6164	121
32.6238	97
32.6312	98
32.6386	110
32.6460	104
32.6534	106
32.6607	103
32.6681	94
32.6755	108
32.6829	84
32.6903	102
32.6977	99
32.7051	119
32.7125	89
32.7199	105
32.7273	96
32.7347	104
32.7421	117
32.7495	110
32.7569	120
32.7643	121
32.7717	93
32.7791	93
32.7865	98
32.7939	103
32.8013	123
32.8087	97
32.8160	109
32.8234	124
32.8308	128
32.8382	102
32.8456	114
32.8530	118
32.8604	131
32.8678	116
32.8752	128
32.8826	107
32.8900	146
32.8974	129
32.9048	117
32.9122	124
32.9196	130
32.9270	123
32.9344	130
32.9418	130
32.9492	125
32.9566	116
32.9640	108
32.9713	103
32.9787	123
32.9861	112
32.9935	115
33.0009	120
33.0083	86
33.0157	114
33.0231	108
33.0305	106
33.0379	117
33.0453	110
33.0527	96
33.0601	116
33.0675	105
33.0749	100
33.0823	98
33.0897	110
33.0971	119
33.1045	99
33.1119	103
33.1193	124
33.1266	116
33.1340	109
33.1414	112
33.1488	107
33.1562	122
33.1636	108
33.1710	118
33.1784	114
33.1858	110
33.1932	110
33.2006	125
33.2080	121
33.2154	104
33.2228	117
33.2302	105
33.2376	118
33.2450	103
33.2524	113
33.2598	113
33.2672	107
33.2746	116
33.2819	126
33.2893	137
33.2967	144
33.3041	137
33.3115	131
33.3189	158
33.3263	166
33.3337	143
33.3411	159
33.3485	165
33.3559	154
33.3633	159
33.3707	137
33.3781	173
33.3855	175
33.3929	139
33.4003	164
33.4077	169
33.4151	199
33.4225	179
33.4299	220
33.4373	184
33.4446	175
33.4520	178
33.4594	191
33.4668	214
33.4742	196
33.4816	216
33.4890	264
33.4964	263
33.5038	329
33.5112	356
33.5186	468
33.5260	513
33.5334	615
33.5408	703
33.5482	641
33.5556	733
33.5630	735
33.5704	762
33.5778	648
33.5852	635
33.5926	695
33.5999	660
33.6073	701
33.6147	669
33.6221	730
33.6295	680
33.6369	643
33.6443	670
33.6517	533
33.6591	491
33.6665	450
33.6739	420
33.6813	386
33.6887	360
33.6961	345
33.7035	346
33.7109	288
33.7183	285
33.7257	259
33.7331	236
33.7405	209
33.7479	185
33.7552	171
33.7626	143
33.7700	169
33.7774	136
33.7848	150
33.7922	146
33.7996	147
33.8070	139
33.8144	132
33.8218	146
33.8292	143
33.8366	139
33.8440	123
33.8514	147
33.8588	128
33.8662	114
33.8736	134
33.8810	151
33.8884	151
33.8958	151
33.9032	160
33.9105	158
33.9179	163
33.9253	166
33.9327	175
33.9401	177
33.9475	153
33.9549	177
33.9623	165
33.9697	189
33.9771	195
33.9845	223
33.9919	248
33.9993	243
34.0067	213
34.0141	195
34.0215	192
34.0289	216
34.0363	178
34.0437	183
34.0511	182
34.0585	217
34.0658	205
34.0732	192
34.0806	209
34.0880	199
34.0954	205
34.1028	200
34.1102	202
34.1176	164
34.1250	177
34.1324	160
34.1398	159
34.1472	151
34.1546	147
34.1620	146
34.1694	153
34.1768	140
34.1842	132
34.1916	135
34.1990	145
34.2064	130
34.2138	117
34.2211	102
34.2285	125
34.2359	126
34.2433	105
34.2507	114
34.2581	104
34.2655	117
34.2729	124
34.2803	101
34.2877	100
34.2951	87
34.3025	91
34.3099	94
34.3173	116
34.3247	101
34.3321	101
34.3395	94
34.3469	104
34.3543	98
34.3617	102
34.3691	93
34.3764	112
34.3838	86
34.3912	93
34.3986	102
34.4060	102
34.4134	99
34.4208	101
34.4282	116
34.4356	106
34.4430	99
34.4504	89
34.4578	92
34.4652	96
34.4726	92
34.4800	113
34.4874	96
34.4948	112
34.5022	102
34.5096	103
34.5170	86
34.5244	93
34.5317	103
34.5391	113
34.5465	105
34.5539	97
34.5613	106
34.5687	101
34.5761	106
34.5835	98
34.5909	108
34.5983	95
34.6057	112
34.6131	110
34.6205	91
34.6279	100
34.6353	94
34.6427	117
34.6501	99
34.6575	98
34.6649	88
34.6723	99
34.6797	88
34.6870	106
34.6944	85
34.7018	88
34.7092	108
34.7166	98
34.7240	95
34.7314	92
34.7388	110
34.7462	93
34.7536	80
34.7610	106
34.7684	89
34.7758	102
34.7832	80
34.7906	108
34.7980	94
34.8054	87
34.8128	100
34.8202	88
34.8276	117
34.8350	80
34.8423	85
34.8497	90
34.8571	97
34.8645	120
34.8719	111
34.8793	107
34.8867	96
34.8941	92
34.9015	99
34.9089	120
34.9163	122
34.9237	116
34.9311	102
34.9385	95
34.9459	86
34.9533	105
34.9607	105
34.9681	113
34.9755	114
34.9829	108
34.9903	86
34.9977	134
35.0050	141
35.0124	121
35.0198	135
35.0272	115
35.0346	111
35.0420	123
35.0494	113
35.0568	102
35.0642	109
35.0716	133
35.0790	100
35.0864	121
35.0938	126
35.1012	118
35.1086	129
35.1160	137
35.1234	128
35.1308	130
35.1382	146
35.1456	153
35.1530	168
35.1603	174
35.1677	192
35.1751	186
35.1825	185
35.1899	194
35.1973	189
35.2047	212
35.2121	185
35.2195	168
35.2269	182
35.2343	169
35.2417	185
35.2491	169
35.2565	141
35.2639	166
35.2713	152
35.2787	153
35.2861	133
35.2935	133
35.3009	156
35.3083	127
35.3156	132
35.3230	133
35.3304	131
35.3378	132
35.3452	105
35.3526	123
35.3600	106
35.3674	114
35.3748	110
35.3822	116
35.3896	104
35.3970	101
35.4044	101
35.4118	111
35.4192	86
35.4266	121
35.4340	116
35.4414	97
35.4488	95
35.4562	109
35.4636	119
35.4709	145
35.4783	134
35.4857	122
35.4931	145
35.5005	143
35.5079	124
35.5153	138
35.5227	140
35.5301	118
35.5375	120
35.5449	128
35.5523	124
35.5597	125
35.5671	119
35.5745	135
35.5819	115
35.5893	107
35.5967	129
35.6041	117
35.6115	115
35.6189	111
35.6262	115
35.6336	109
35.6410	109
35.6484	107
35.6558	91
35.6632	110
35.6706	108
35.6780	112
35.6854	98
35.6928	102
35.7002	90
35.7076	105
35.7150	98
35.7224	100
35.7298	100
35.7372	89
35.7446	100
35.7520	113
35.7594	94
35.7668	105
35.7742	111
35.7815	94
35.7889	104
35.7963	87
35.8037	105
35.8111	116
35.8185	87
35.8259	104
35.8333	122
35.8407	119
35.8481	111
35.8555	84
35.8629	117
35.8703	111
35.8777	92
35.8851	124
35.8925	109
35.8999	104
35.9073	98
35.9147	116
35.9221	108
35.9295	105
35.9368	117
35.9442	115
35.9516	134
35.9590	146
35.9664	128
35.9738	137
35.9812	121
35.9886	137
35.9960	152
36.0034	169
36.0108	170
36.0182	184
36.0256	169
36.0330	202
36.0404	202
36.0478	237
36.0552	294
36.0626	263
36.0700	297
36.0774	290
36.0848	287
36.0921	251
36.0995	263
36.1069	250
36.1143	300
36.1217	288
36.1291	296
36.1365	308
36.1439	301
36.1513	288
36.1587	316
36.1661	322
36.1735	325
36.1809	308
36.1883	301
36.1957	314
36.2031	301
36.2105	264
36.2179	278
36.2253	256
36.2327	229
36.2401	212
36.2474	225
36.2548	221
36.2622	208
36.2696	230
36.2770	212
36.2844	221
36.2918	217
36.2992	209
36.3066	233
36.3140	218
36.3214	242
36.3288	270
36.3362	267
36.3436	280
36.3510	255
36.3584	235
36.3658	231
36.3732	232
36.3806	206
36.3880	179
36.3954	167
36.4027	198
36.4101	163
36.4175	175
36.4249	171
36.4323	201
36.4397	188
36.4471	193
36.4545	175
36.4619	156
36.4693	144
36.4767	164
36.4841	144
36.4915	113
36.4989	127
36.5063	110
36.5137	118
36.5211	105
36.5285	105
36.5359	120
36.5433	101
36.5507	87
36.5580	112
36.5654	93
36.5728	106
36.5802	102
36.5876	124
36.5950	105
36.6024	117
36.6098	113
36.6172	83
36.6246	119
36.6320	102
36.6394	110
36.6468	92
36.6542	102
36.6616	110
36.6690	106
36.6764	112
36.6838	104
36.6912	104
36.6986	113
36.7060	117
36.7134	112
36.7207	107
36.7281	108
36.7355	108
36.7429	87
36.7503	94
36.7577	114
36.7651	97
36.7725	106
36.7799	92
36.7873	92
36.7947	87
36.8021	94
36.8095	101
36.8169	92
36.8243	91
36.8317	103
36.8391	102
36.8465	81
36.8539	87
36.8613	107
36.8687	93
36.8760	103
36.8834	95
36.8908	104
36.8982	91
36.9056	100
36.9130	100
36.9204	87
36.9278	104
36.9352	109
36.9426	93
36.9500	105
36.9574	102
36.9648	107
36.9722	92
36.9796	93
36.9870	101
36.9944	93
37.0018	119
37.0092	109
37.0166	110
37.0240	102
37.0313	102
37.0387	116
37.0461	80
37.0535	105
37.0609	107
37.0683	107
37.0757	95
37.0831	117
37.0905	117
37.0979	113
37.1053	129
37.1127	118
37.1201	123
37.1275	128
37.1349	127
37.1423	130
37.1497	175
37.1571	164
37.1645	171
37.1719	165
37.1793	186
37.1866	178
37.1940	161
37.2014	175
37.2088	168
37.2162	152
37.2236	174
37.2310	163
37.2384	161
37.2458	136
37.2532	128
37.2606	142
37.2680	163
37.2754	135
37.2828	135
37.2902	168
37.2976	146
37.3050	120
37.3124	135
37.3198	129
37.3272	117
37.3346	117
37.3419	106
37.3493	87
37.3567	92
37.3641	105
37.3715	97
37.3789	109
37.3863	106
37.3937	119
37.4011	105
37.4085	105
37.4159	104
37.4233	99
37.4307	113
37.4381	97
37.4455	98
37.4529	96
37.4603	99
37.4677	101
37.4751	108
37.4825	121
37.4899	110
37.4972	102
37.5046	113
37.5120	122
37.5194	126
37.5268	127
37.5342	118
37.5416	123
37.5490	135
37.5564	127
37.5638	132
37.5712	137
37.5786	138
37.5860	133
37.5934	163
37.6008	157
37.6082	128
37.6156	143
37.6230	158
37.6304	187
37.6378	195
37.6452	222
37.6525	230
37.6599	241
37.6673	256
37.6747	284
37.6821	288
37.6895	263
37.6969	298
37.7043	319
37.7117	277
37.7191	261
37.7265	263
37.7339	303
37.7413	306
37.7487	292
37.7561	275
37.7635	273
37.7709	261
37.7783	246
37.7857	251
37.7931	229
37.8005	204
37.8078	170
37.8152	196
37.8226	211
37.8300	179
37.8374	186
37.8448	171
37.8522	160
37.8596	178
37.8670	149
37.8744	137
37.8818	139
37.8892	122
37.8966	104
37.9040	113
37.9114	110
37.9188	120
37.9262	103
37.9336	108
37.9410	100
37.9484	93
37.9558	102
37.9631	106
37.9705	112
37.9779	95
37.9853	113
37.9927	108
38.0001	103
38.0075	116
38.0149	131
38.0223	90
38.0297	101
38.0371	107
38.0445	90
38.0519	82
38.0593	107
38.0667	100
38.0741	104
38.0815	87
38.0889	129
38.0963	106
38.1037	109
38.1111	121
38.1184	110
38.1258	106
38.1332	101
38.1406	102
38.1480	102
38.1554	100
38.1628	132
38.1702	98
38.1776	130
38.1850	111
38.1924	110
38.1998	129
38.2072	117
38.2146	133
38.2220	106
38.2294	112
38.2368	124
38.2442	135
38.2516	139
38.2590	132
38.2664	161
38.2738	164
38.2811	186
38.2885	190
38.2959	212
38.3033	231
38.3107	226
38.3181	254
38.3255	271
38.3329	263
38.3403	235
38.3477	229
38.3551	207
38.3625	209
38.3699	197
38.3773	182
38.3847	174
38.3921	176
38.3995	170
38.4069	218
38.4143	193
38.4217	200
38.4291	209
38.4364	203
38.4438	187
38.4512	195
38.4586	173
38.4660	185
38.4734	199
38.4808	218
38.4882	244
38.4956	203
38.5030	210
38.5104	193
38.5178	187
38.5252	164
38.5326	162
38.5400	180
38.5474	156
38.5548	158
38.5622	143
38.5696	158
38.5770	147
38.5844	156
38.5917	155
38.5991	139
38.6065	165
38.6139	147
38.6213	136
38.6287	131
38.6361	125
38.6435	139
38.6509	120
38.6583	115
38.6657	120
38.6731	106
38.6805	106
38.6879	107
38.6953	102
38.7027	90
38.7101	107
38.7175	115
38.7249	110
38.7323	103
38.7397	82
38.7470	104
38.7544	122
38.7618	104
38.7692	105
38.7766	108
38.7840	110
38.7914	91
38.7988	93
38.8062	91
38.8136	108
38.8210	98
38.8284	123
38.8358	116
38.8432	110
38.8506	103
38.8580	103
38.8654	117
38.8728	91
38.8802	138
38.8876	112
38.8950	110
38.9023	103
38.9097	100
38.9171	99
38.9245	101
38.9319	98
38.9393	109
38.9467	117
38.9541	111
38.9615	107
38.9689	124
38.9763	100
38.9837	91
38.9911	103
38.9985	102
39.0059	108
39.0133	92
39.0207	87
39.0281	110
39.0355	114
39.0429	98
39.0503	108
39.0576	124
39.0650	128
39.0724	123
39.0798	132
39.0872	122
39.0946	107
39.1020	116
39.1094	109
39.1168	126
39.1242	145
39.1316	124
39.1390	135
39.1464	128
39.1538	137
39.1612	102
39.1686	127
39.1760	130
39.1834	118
39.1908	126
39.1982	129
39.2056	152
39.2129	139
39.2203	135
39.2277	147
39.2351	181
39.2425	161
39.2499	188
39.2573	142
39.2647	192
39.2721	217
39.2795	241
39.2869	242
39.2943	248
39.3017	324
39.3091	315
39.3165	305
39.3239	307
39.3313	278
39.3387	274
39.3461	257
39.3535	258
39.3609	233
39.3682	233
39.3756	242
39.3830	252
39.3904	245
39.3978	300
39.4052	288
39.4126	342
39.4200	304
39.4274	304
39.4348	331
39.4422	288
39.4496	290
39.4570	264
39.4644	265
39.4718	285
39.4792	270
39.4866	269
39.4940	253
39.5014	277
39.5088	306
39.5162	281
39.5235	264
39.5309	258
39.5383	251
39.5457	233
39.5531	245
39.5605	214
39.5679	209
39.5753	234
39.5827	178
39.5901	197
39.5975	207
39.6049	166
39.6123	186
39.6197	188
39.6271	172
39.6345	166
39.6419	157
39.6493	158
39.6567	143
39.6641	142
39.6715	143
39.6788	145
39.6862	143
39.6936	125
39.7010	129
39.7084	134
39.7158	137
39.7232	143
39.7306	113
39.7380	125
39.7454	134
39.7528	126
39.7602	103
39.7676	144
39.7750	126
39.7824	120
39.7898	151
39.7972	179
39.8046	175
39.8120	190
39.8194	181
39.8268	178
39.8342	197
39.8415	159
39.8489	146
39.8563	132
39.8637	135
39.8711	150
39.8785	128
39.8859	129
39.8933	134
39.9007	128
39.9081	124
39.9155	124
39.9229	143
39.9303	146
39.9377	143
39.9451	147
39.9525	136
39.9599	132
39.9673	109
39.9747	117
39.9821	109
39.9895	109
39.9968	108
