2.0000	194
2.0074	222
2.0148	206
2.0222	191
2.0296	206
2.0370	195
2.0444	209
2.0518	191
2.0592	207
2.0666	200
2.0740	202
2.0813	185
2.0887	192
2.0961	199
2.1035	204
2.1109	189
2.1183	233
2.1257	186
2.1331	215
2.1405	202
2.1479	226
2.1553	198
2.1627	192
2.1701	193
2.1775	216
2.1849	232
2.1923	219
2.1997	184
2.2071	207
2.2145	169
2.2219	220
2.2293	199
2.2366	188
2.2440	200
2.2514	217
2.2588	204
2.2662	207
2.2736	201
2.2810	207
2.2884	225
2.2958	200
2.3032	185
2.3106	214
2.3180	196
2.3254	214
2.3328	198
2.3402	191
2.3476	183
2.3550	208
2.3624	200
2.3698	223
2.3772	228
2.3846	184
2.3919	192
2.3993	195
2.4067	186
2.4141	209
2.4215	223
2.4289	195
2.4363	216
2.4437	183
2.4511	189
2.4585	187
2.4659	194
2.4733	190
2.4807	209
2.4881	192
2.4955	231
2.5029	198
2.5103	225
2.5177	193
2.5251	183
2.5325	195
2.5399	199
2.5472	192
2.5546	198
2.5620	198
2.5694	186
2.5768	188
2.5842	192
2.5916	172
2.5990	185
2.6064	180
2.6138	173
2.6212	193
2.6286	178
2.6360	150
2.6434	174
2.6508	185
2.6582	204
2.6656	196
2.6730	184
2.6804	192
2.6878	187
2.6952	206
2.7025	181
2.7099	186
2.7173	190
2.7247	191
2.7321	187
2.7395	199
2.7469	204
2.7543	180
2.7617	198
2.7691	181
2.7765	191
2.7839	207
2.7913	163
2.7987	207
2.8061	158
2.8135	159
2.8209	198
2.8283	183
2.8357	207
2.8431	172
2.8505	197
2.8579	163
2.8652	203
2.8726	190
2.8800	184
2.8874	165
2.8948	178
2.9022	187
2.9096	177
2.9170	197
2.9244	156
2.9318	200
2.9392	179
2.9466	188
2.9540	197
2.9614	184
2.9688	175
2.9762	198
2.9836	174
2.9910	177
2.9984	165
3.0058	165
3.0132	194
3.0205	198
3.0279	152
3.0353	177
3.0427	164
3.0501	186
3.0575	184
3.0649	178
3.0723	174
3.0797	167
3.0871	169
3.0945	194
3.1019	152
3.1093	158
3.1167	180
3.1241	182
3.1315	186
3.1389	158
3.1463	182
3.1537	175
3.1611	175
3.1685	173
3.1758	179
3.1832	178
3.1906	167
3.1980	174
3.2054	173
3.2128	185
3.2202	178
3.2276	153
3.2350	203
3.2424	172
3.2498	168
3.2572	178
3.2646	184
3.2720	158
3.2794	197
3.2868	167
3.2942	176
3.3016	172
3.3090	182
3.3164	146
3.3238	153
3.3311	185
3.3385	166
3.3459	172
3.3533	176
3.3607	177
3.3681	181
3.3755	190
3.3829	183
3.3903	157
3.3977	171
3.4051	198
3.4125	157
3.4199	181
3.4273	171
3.4347	191
3.4421	179
3.4495	165
3.4569	190
3.4643	169
3.4717	172
3.4791	173
3.4864	152
3.4938	175
3.5012	156
3.5086	156
3.5160	168
3.5234	164
3.5308	170
3.5382	186
3.5456	178
3.5530	150
3.5604	179
3.5678	164
3.5752	166
3.5826	170
3.5900	150
3.5974	157
3.6048	163
3.6122	179
3.6196	158
3.6270	184
3.6344	170
3.6417	160
3.6491	167
3.6565	183
3.6639	172
3.6713	173
3.6787	156
3.6861	175
3.6935	167
3.7009	168
3.7083	170
3.7157	158
3.7231	152
3.7305	139
3.7379	152
3.7453	175
3.7527	129
3.7601	184
3.7675	129
3.7749	155
3.7823	172
3.7897	160
3.7970	173
3.8044	142
3.8118	153
3.8192	149
3.8266	143
3.8340	166
3.8414	133
3.8488	157
3.8562	130
3.8636	152
3.8710	164
3.8784	170
3.8858	158
3.8932	158
3.9006	146
3.9080	138
3.9154	147
3.9228	137
3.9302	142
3.9376	156
3.9450	139
3.9523	156
3.9597	159
3.9671	162
3.9745	136
3.9819	151
3.9893	162
3.9967	146
4.0041	161
4.0115	144
4.0189	155
4.0263	163
4.0337	141
4.0411	129
4.0485	152
4.0559	135
4.0633	149
4.0707	120
4.0781	164
4.0855	153
4.0929	144
4.1003	130
4.1076	143
4.1150	137
4.1224	121
4.1298	127
4.1372	142
4.1446	143
4.1520	134
4.1594	138
4.1668	138
4.1742	131
4.1816	135
4.1890	133
4.1964	126
4.2038	154
4.2112	140
4.2186	133
4.2260	117
4.2334	158
4.2408	124
4.2482	139
4.2556	126
4.2629	141
4.2703	133
4.2777	142
4.2851	158
4.2925	138
4.2999	125
4.3073	132
4.3147	119
4.3221	126
4.3295	145
4.3369	143
4.3443	130
4.3517	137
4.3591	126
4.3665	122
4.3739	141
4.3813	122
4.3887	128
4.3961	128
4.4035	117
4.4109	141
4.4183	139
4.4256	114
4.4330	130
4.4404	126
4.4478	124
4.4552	126
4.4626	115
4.4700	127
4.4774	122
4.4848	131
4.4922	135
4.4996	143
4.5070	134
4.5144	126
4.5218	127
4.5292	116
4.5366	128
4.5440	115
4.5514	96
4.5588	132
4.5662	101
4.5736	113
4.5809	127
4.5883	134
4.5957	129
4.6031	114
4.6105	119
4.6179	132
4.6253	102
4.6327	130
4.6401	135
4.6475	113
4.6549	122
4.6623	122
4.6697	100
4.6771	112
4.6845	114
4.6919	138
4.6993	119
4.7067	119
4.7141	110
4.7215	126
4.7289	132
4.7362	120
4.7436	129
4.7510	108
4.7584	105
4.7658	119
4.7732	123
4.7806	113
4.7880	119
4.7954	114
4.8028	115
4.8102	105
4.8176	105
4.8250	104
4.8324	134
4.8398	137
4.8472	118
4.8546	131
4.8620	120
4.8694	119
4.8768	116
4.8842	123
4.8915	124
4.8989	123
4.9063	114
4.9137	111
4.9211	112
4.9285	105
4.9359	119
4.9433	131
4.9507	111
4.9581	103
4.9655	120
4.9729	98
4.9803	114
4.9877	114
4.9951	116
5.0025	113
5.0099	111
5.0173	105
5.0247	115
5.0321	120
5.0395	110
5.0468	121
5.0542	115
5.0616	120
5.0690	121
5.0764	99
5.0838	118
5.0912	116
5.0986	113
5.1060	103
5.1134	131
5.1208	102
5.1282	108
5.1356	122
5.1430	116
5.1504	118
5.1578	107
5.1652	129
5.1726	125
5.1800	108
5.1874	112
5.1948	115
5.2021	125
5.2095	126
5.2169	114
5.2243	130
5.2317	102
5.2391	133
5.2465	129
5.2539	114
5.2613	135
5.2687	100
5.2761	132
5.2835	126
5.2909	123
5.2983	131
5.3057	121
5.3131	114
5.3205	139
5.3279	121
5.3353	128
5.3427	133
5.3501	117
5.3574	118
5.3648	121
5.3722	141
5.3796	124
5.3870	126
5.3944	125
5.4018	142
5.4092	118
5.4166	115
5.4240	119
5.4314	158
5.4388	125
5.4462	141
5.4536	141
5.4610	157
5.4684	133
5.4758	153
5.4832	151
5.4906	144
5.4980	152
5.5054	142
5.5127	139
5.5201	144
5.5275	130
5.5349	140
5.5423	149
5.5497	137
5.5571	147
5.5645	130
5.5719	167
5.5793	143
5.5867	187
5.5941	163
5.6015	149
5.6089	163
5.6163	159
5.6237	187
5.6311	186
5.6385	206
5.6459	210
5.6533	217
5.6607	231
5.6680	244
5.6754	234
5.6828	238
5.6902	234
5.6976	236
5.7050	264
5.7124	272
5.7198	297
5.7272	282
5.7346	319
5.7420	305
5.7494	340
5.7568	362
5.7642	382
5.7716	405
5.7790	415
5.7864	478
5.7938	496
5.8012	549
5.8086	553
5.8160	622
5.8233	654
5.8307	713
5.8381	741
5.8455	845
5.8529	949
5.8603	994
5.8677	980
5.8751	1095
5.8825	1169
5.8899	1238
5.8973	1335
5.9047	1507
5.9121	1633
5.9195	1793
5.9269	1832
5.9343	2049
5.9417	2270
5.9491	2543
5.9565	2837
5.9639	3261
5.9713	3710
5.9786	4358
5.9860	5077
5.9934	5810
6.0008	6671
6.0082	7826
6.0156	8629
6.0230	9288
6.0304	9302
6.0378	9024
6.0452	8459
6.0526	7479
6.0600	6336
6.0674	5364
6.0748	4117
6.0822	3400
6.0896	2589
6.0970	1900
6.1044	1515
6.1118	1259
6.1192	994
6.1266	901
6.1340	696
6.1413	633
6.1487	531
6.1561	489
6.1635	463
6.1709	384
6.1783	417
6.1857	382
6.1931	360
6.2005	329
6.2079	308
6.2153	328
6.2227	316
6.2301	308
6.2375	288
6.2449	292
6.2523	273
6.2597	254
6.2671	243
6.2745	252
6.2819	253
6.2893	243
6.2966	236
6.3040	249
6.3114	222
6.3188	225
6.3262	239
6.3336	237
6.3410	219
6.3484	228
6.3558	242
6.3632	220
6.3706	221
6.3780	179
6.3854	211
6.3928	184
6.4002	182
6.4076	205
6.4150	189
6.4224	236
6.4298	165
6.4372	186
6.4446	194
6.4519	176
6.4593	190
6.4667	192
6.4741	190
6.4815	182
6.4889	187
6.4963	156
6.5037	179
6.5111	182
6.5185	183
6.5259	180
6.5333	161
6.5407	165
6.5481	172
6.5555	166
6.5629	155
6.5703	166
6.5777	157
6.5851	144
6.5925	173
6.5999	167
6.6072	141
6.6146	160
6.6220	143
6.6294	164
6.6368	157
6.6442	145
6.6516	154
6.6590	159
6.6664	123
6.6738	134
6.6812	149
6.6886	150
6.6960	141
6.7034	150
6.7108	164
6.7182	141
6.7256	152
6.7330	139
6.7404	128
6.7478	159
6.7552	156
6.7625	144
6.7699	154
6.7773	141
6.7847	126
6.7921	140
6.7995	138
6.8069	149
6.8143	132
6.8217	119
6.8291	143
6.8365	122
6.8439	133
6.8513	122
6.8587	146
6.8661	132
6.8735	163
6.8809	144
6.8883	143
6.8957	109
6.9031	132
6.9105	140
6.9178	109
6.9252	124
6.9326	138
6.9400	132
6.9474	131
6.9548	129
6.9622	116
6.9696	107
6.9770	133
6.9844	119
6.9918	127
6.9992	116
7.0066	118
7.0140	125
7.0214	114
7.0288	118
7.0362	128
7.0436	119
7.0510	139
7.0584	128
7.0658	140
7.0731	119
7.0805	146
7.0879	148
7.0953	118
7.1027	127
7.1101	127
7.1175	119
7.1249	119
7.1323	106
7.1397	118
7.1471	118
7.1545	105
7.1619	128
7.1693	125
7.1767	124
7.1841	122
7.1915	100
7.1989	93
7.2063	130
7.2137	112
7.2211	121
7.2284	113
7.2358	109
7.2432	100
7.2506	100
7.2580	127
7.2654	129
7.2728	130
7.2802	113
7.2876	113
7.2950	115
7.3024	101
7.3098	114
7.3172	95
7.3246	102
7.3320	109
7.3394	111
7.3468	108
7.3542	122
7.3616	112
7.3690	102
7.3764	107
7.3837	106
7.3911	114
7.3985	101
7.4059	118
7.4133	119
7.4207	110
7.4281	96
7.4355	101
7.4429	92
7.4503	95
7.4577	93
7.4651	119
7.4725	104
7.4799	106
7.4873	108
7.4947	104
7.5021	114
7.5095	105
7.5169	116
7.5243	108
7.5317	114
7.5390	112
7.5464	95
7.5538	107
7.5612	92
7.5686	101
7.5760	115
7.5834	101
7.5908	113
7.5982	104
7.6056	113
7.6130	96
7.6204	91
7.6278	98
7.6352	98
7.6426	84
7.6500	114
7.6574	82
7.6648	84
7.6722	94
7.6796	93
7.6870	90
7.6944	90
7.7017	95
7.7091	100
7.7165	105
7.7239	105
7.7313	107
7.7387	107
7.7461	92
7.7535	90
7.7609	96
7.7683	108
7.7757	99
7.7831	116
7.7905	105
7.7979	86
7.8053	89
7.8127	102
7.8201	111
7.8275	79
7.8349	106
7.8423	100
7.8497	93
7.8570	100
7.8644	94
7.8718	93
7.8792	95
7.8866	102
7.8940	106
7.9014	84
7.9088	104
7.9162	96
7.9236	79
7.9310	95
7.9384	83
7.9458	123
7.9532	86
7.9606	75
7.9680	80
7.9754	73
7.9828	84
7.9902	80
7.9976	82
8.0050	85
8.0123	88
8.0197	69
8.0271	93
8.0345	110
8.0419	102
8.0493	100
8.0567	101
8.0641	97
8.0715	103
8.0789	101
8.0863	95
8.0937	98
8.1011	95
8.1085	93
8.1159	104
8.1233	80
8.1307	102
8.1381	90
8.1455	94
8.1529	80
8.1603	82
8.1676	88
8.1750	92
8.1824	65
8.1898	93
8.1972	79
8.2046	87
8.2120	93
8.2194	79
8.2268	92
8.2342	89
8.2416	79
8.2490	87
8.2564	97
8.2638	90
8.2712	83
8.2786	93
8.2860	85
8.2934	94
8.3008	93
8.3082	91
8.3156	103
8.3229	104
8.3303	91
8.3377	105
8.3451	86
8.3525	80
8.3599	84
8.3673	85
8.3747	86
8.3821	70
8.3895	90
8.3969	65
8.4043	105
8.4117	77
8.4191	115
8.4265	86
8.4339	93
8.4413	83
8.4487	93
8.4561	98
8.4635	73
8.4709	86
8.4782	84
8.4856	92
8.4930	93
8.5004	102
8.5078	91
8.5152	71
8.5226	97
8.5300	82
8.5374	76
8.5448	105
8.5522	72
8.5596	85
8.5670	103
8.5744	82
8.5818	76
8.5892	85
8.5966	90
8.6040	97
8.6114	82
8.6188	71
8.6262	86
8.6335	81
8.6409	96
8.6483	84
8.6557	82
8.6631	80
8.6705	84
8.6779	82
8.6853	82
8.6927	88
8.7001	81
8.7075	87
8.7149	73
8.7223	69
8.7297	93
8.7371	90
8.7445	79
8.7519	93
8.7593	92
8.7667	85
8.7741	75
8.7815	93
8.7888	80
8.7962	72
8.8036	75
8.8110	67
8.8184	82
8.8258	74
8.8332	60
8.8406	92
8.8480	87
8.8554	91
8.8628	101
8.8702	89
8.8776	80
8.8850	76
8.8924	72
8.8998	87
8.9072	74
8.9146	88
8.9220	85
8.9294	99
8.9368	77
8.9441	92
8.9515	77
8.9589	85
8.9663	90
8.9737	105
8.9811	82
8.9885	82
8.9959	82
9.0033	90
9.0107	76
9.0181	96
9.0255	106
9.0329	92
9.0403	74
9.0477	90
9.0551	76
9.0625	85
9.0699	71
9.0773	63
9.0847	70
9.0921	76
9.0994	86
9.1068	82
9.1142	88
9.1216	76
9.1290	88
9.1364	72
9.1438	76
9.1512	69
9.1586	82
9.1660	90
9.1734	104
9.1808	102
9.1882	91
9.1956	89
9.2030	73
9.2104	87
9.2178	84
9.2252	72
9.2326	83
9.2400	70
9.2474	93
9.2548	69
9.2621	78
9.2695	90
9.2769	101
9.2843	74
9.2917	99
9.2991	95
9.3065	94
9.3139	90
9.3213	74
9.3287	100
9.3361	79
9.3435	93
9.3509	73
9.3583	73
9.3657	91
9.3731	84
9.3805	68
9.3879	81
9.3953	76
9.4027	73
9.4101	84
9.4174	86
9.4248	57
9.4322	74
9.4396	98
9.4470	86
9.4544	99
9.4618	72
9.4692	77
9.4766	82
9.4840	79
9.4914	84
9.4988	71
9.5062	78
9.5136	82
9.5210	88
9.5284	77
9.5358	94
9.5432	94
9.5506	72
9.5580	87
9.5654	87
9.5727	82
9.5801	86
9.5875	77
9.5949	78
9.6023	96
9.6097	85
9.6171	70
9.6245	76
9.6319	101
9.6393	100
9.6467	85
9.6541	93
9.6615	69
9.6689	80
9.6763	80
9.6837	89
9.6911	85
9.6985	77
9.7059	91
9.7133	95
9.7207	83
9.7280	94
9.7354	77
9.7428	75
9.7502	78
9.7576	79
9.7650	98
9.7724	75
9.7798	72
9.7872	96
9.7946	79
9.8020	74
9.8094	88
9.8168	90
9.8242	84
9.8316	82
9.8390	59
9.8464	89
9.8538	79
9.8612	85
9.8686	85
9.8760	98
9.8833	79
9.8907	89
9.8981	90
9.9055	81
9.9129	100
9.9203	89
9.9277	80
9.9351	89
9.9425	71
9.9499	73
9.9573	93
9.9647	91
9.9721	83
9.9795	92
9.9869	87
9.9943	71
10.0017	84
10.0091	93
10.0165	77
10.0239	70
10.0313	98
10.0386	105
10.0460	82
10.0534	71
10.0608	76
10.0682	83
10.0756	89
10.0830	90
10.0904	91
10.0978	98
10.1052	95
10.1126	87
10.1200	92
10.1274	75
10.1348	71
10.1422	79
10.1496	65
10.1570	100
10.1644	87
10.1718	96
10.1792	71
10.1866	91
10.1939	61
10.2013	82
10.2087	71
10.2161	81
10.2235	90
10.2309	90
10.2383	67
10.2457	89
10.2531	88
10.2605	80
10.2679	93
10.2753	73
10.2827	100
10.2901	82
10.2975	89
10.3049	72
10.3123	74
10.3197	85
10.3271	86
10.3345	98
10.3419	77
10.3492	79
10.3566	93
10.3640	83
10.3714	84
10.3788	88
10.3862	68
10.3936	83
10.4010	71
10.4084	76
10.4158	76
10.4232	80
10.4306	82
10.4380	72
10.4454	94
10.4528	84
10.4602	80
10.4676	92
10.4750	65
10.4824	99
10.4898	89
10.4972	93
10.5045	86
10.5119	83
10.5193	85
10.5267	87
10.5341	83
10.5415	77
10.5489	74
10.5563	82
10.5637	91
10.5711	87
10.5785	88
10.5859	79
10.5933	76
10.6007	83
10.6081	88
10.6155	85
10.6229	67
10.6303	82
10.6377	83
10.6451	77
10.6525	76
10.6598	83
10.6672	88
10.6746	72
10.6820	80
10.6894	89
10.6968	82
10.7042	72
10.7116	94
10.7190	75
10.7264	91
10.7338	85
10.7412	83
10.7486	87
10.7560	73
10.7634	85
10.7708	92
10.7782	86
10.7856	100
10.7930	93
10.8004	99
10.8078	85
10.8151	81
10.8225	82
10.8299	92
10.8373	70
10.8447	83
10.8521	79
10.8595	80
10.8669	95
10.8743	92
10.8817	89
10.8891	85
10.8965	78
10.9039	89
10.9113	92
10.9187	89
10.9261	76
10.9335	119
10.9409	80
10.9483	100
10.9557	77
10.9631	85
10.9705	81
10.9778	100
10.9852	74
10.9926	88
11.0000	68
11.0074	83
11.0148	89
11.0222	89
11.0296	96
11.0370	96
11.0444	74
11.0518	69
11.0592	93
11.0666	80
11.0740	82
11.0814	103
11.0888	96
11.0962	81
11.1036	104
11.1110	93
11.1184	93
11.1258	94
11.1331	92
11.1405	95
11.1479	95
11.1553	85
11.1627	84
11.1701	90
11.1775	95
11.1849	76
11.1923	79
11.1997	83
11.2071	96
11.2145	90
11.2219	97
11.2293	86
11.2367	85
11.2441	91
11.2515	89
11.2589	96
11.2663	82
11.2737	97
11.2811	97
11.2884	85
11.2958	80
11.3032	82
11.3106	84
11.3180	91
11.3254	95
11.3328	91
11.3402	103
11.3476	88
11.3550	89
11.3624	85
11.3698	95
11.3772	71
11.3846	112
11.3920	102
11.3994	82
11.4068	85
11.4142	82
11.4216	98
11.4290	84
11.4364	97
11.4437	91
11.4511	93
11.4585	108
11.4659	117
11.4733	90
11.4807	85
11.4881	87
11.4955	82
11.5029	98
11.5103	85
11.5177	102
11.5251	88
11.5325	98
11.5399	87
11.5473	115
11.5547	84
11.5621	80
11.5695	99
11.5769	93
11.5843	93
11.5917	101
11.5990	101
11.6064	84
11.6138	106
11.6212	92
11.6286	100
11.6360	91
11.6434	105
11.6508	95
11.6582	98
11.6656	100
11.6730	92
11.6804	101
11.6878	93
11.6952	87
11.7026	108
11.7100	97
11.7174	116
11.7248	96
11.7322	105
11.7396	99
11.7470	119
11.7543	93
11.7617	86
11.7691	104
11.7765	120
11.7839	101
11.7913	105
11.7987	105
11.8061	134
11.8135	108
11.8209	123
11.8283	120
11.8357	131
11.8431	101
11.8505	123
11.8579	117
11.8653	120
11.8727	141
11.8801	131
11.8875	135
11.8949	148
11.9023	144
11.9096	142
11.9170	162
11.9244	166
11.9318	196
11.9392	226
11.9466	220
11.9540	192
11.9614	253
11.9688	302
11.9762	307
11.9836	362
11.9910	367
11.9984	378
12.0058	422
12.0132	476
12.0206	425
12.0280	393
12.0354	406
12.0428	374
12.0502	366
12.0576	309
12.0649	295
12.0723	265
12.0797	282
12.0871	229
12.0945	237
12.1019	240
12.1093	245
12.1167	239
12.1241	231
12.1315	278
12.1389	271
12.1463	299
12.1537	324
12.1611	360
12.1685	351
12.1759	452
12.1833	430
12.1907	533
12.1981	617
12.2055	646
12.2129	734
12.2202	960
12.2276	1025
12.2350	1215
12.2424	1429
12.2498	1679
12.2572	1890
12.2646	1948
12.2720	2203
12.2794	2142
12.2868	2133
12.2942	1950
12.3016	1807
12.3090	1683
12.3164	1430
12.3238	1316
12.3312	1058
12.3386	919
12.3460	828
12.3534	723
12.3608	582
12.3682	552
12.3755	468
12.3829	484
12.3903	456
12.3977	470
12.4051	465
12.4125	494
12.4199	563
12.4273	628
12.4347	665
12.4421	787
12.4495	829
12.4569	878
12.4643	867
12.4717	914
12.4791	936
12.4865	896
12.4939	837
12.5013	706
12.5087	597
12.5161	575
12.5235	498
12.5309	424
12.5382	342
12.5456	334
12.5530	300
12.5604	222
12.5678	224
12.5752	212
12.5826	198
12.5900	159
12.5974	169
12.6048	181
12.6122	167
12.6196	142
12.6270	157
12.6344	142
12.6418	141
12.6492	148
12.6566	122
12.6640	125
12.6714	122
12.6788	130
12.6862	133
12.6935	136
12.7009	124
12.7083	125
12.7157	129
12.7231	129
12.7305	118
12.7379	124
12.7453	123
12.7527	113
12.7601	126
12.7675	127
12.7749	124
12.7823	111
12.7897	122
12.7971	121
12.8045	111
12.8119	123
12.8193	123
12.8267	132
12.8341	125
12.8415	117
12.8488	124
12.8562	100
12.8636	118
12.8710	114
12.8784	103
12.8858	104
12.8932	119
12.9006	115
12.9080	138
12.9154	136
12.9228	118
12.9302	127
12.9376	123
12.9450	115
12.9524	110
12.9598	115
12.9672	118
12.9746	123
12.9820	124
12.9894	106
12.9968	120
13.0041	127
13.0115	91
13.0189	112
13.0263	97
13.0337	115
13.0411	104
13.0485	111
13.0559	115
13.0633	107
13.0707	127
13.0781	120
13.0855	120
13.0929	114
13.1003	107
13.1077	103
13.1151	100
13.1225	94
13.1299	135
13.1373	104
13.1447	115
13.1521	93
13.1594	126
13.1668	132
13.1742	91
13.1816	100
13.1890	112
13.1964	88
13.2038	107
13.2112	122
13.2186	100
13.2260	97
13.2334	109
13.2408	118
13.2482	87
13.2556	108
13.2630	104
13.2704	105
13.2778	108
13.2852	94
13.2926	117
13.3000	94
13.3074	108
13.3147	89
13.3221	123
13.3295	117
13.3369	101
13.3443	119
13.3517	106
13.3591	107
13.3665	123
13.3739	121
13.3813	112
13.3887	110
13.3961	96
13.4035	123
13.4109	109
13.4183	105
13.4257	115
13.4331	107
13.4405	96
13.4479	97
13.4553	102
13.4627	108
13.4700	102
13.4774	103
13.4848	98
13.4922	101
13.4996	110
13.5070	81
13.5144	107
13.5218	101
13.5292	104
13.5366	98
13.5440	109
13.5514	122
13.5588	103
13.5662	101
13.5736	101
13.5810	107
13.5884	101
13.5958	108
13.6032	101
13.6106	100
13.6180	108
13.6253	99
13.6327	111
13.6401	111
13.6475	96
13.6549	106
13.6623	102
13.6697	97
13.6771	112
13.6845	117
13.6919	118
13.6993	98
13.7067	102
13.7141	83
13.7215	109
13.7289	98
13.7363	96
13.7437	100
13.7511	106
13.7585	88
13.7659	105
13.7733	89
13.7806	102
13.7880	102
13.7954	98
13.8028	87
13.8102	105
13.8176	112
13.8250	105
13.8324	107
13.8398	107
13.8472	95
13.8546	108
13.8620	120
13.8694	113
13.8768	99
13.8842	98
13.8916	85
13.8990	102
13.9064	91
13.9138	87
13.9212	96
13.9286	102
13.9359	88
13.9433	92
13.9507	102
13.9581	96
13.9655	99
13.9729	95
13.9803	99
13.9877	119
13.9951	115
14.0025	93
14.0099	92
14.0173	96
14.0247	106
14.0321	101
14.0395	83
14.0469	110
14.0543	113
14.0617	99
14.0691	107
14.0765	99
14.0839	98
14.0913	100
14.0986	110
14.1060	112
14.1134	84
14.1208	74
14.1282	102
14.1356	106
14.1430	104
14.1504	89
14.1578	102
14.1652	105
14.1726	116
14.1800	101
14.1874	108
14.1948	119
14.2022	96
14.2096	118
14.2170	88
14.2244	80
14.2318	98
14.2392	107
14.2466	110
14.2539	99
14.2613	117
14.2687	131
14.2761	131
14.2835	121
14.2909	100
14.2983	113
14.3057	111
14.3131	132
14.3205	115
14.3279	104
14.3353	117
14.3427	106
14.3501	130
14.3575	114
14.3649	121
14.3723	122
14.3797	92
14.3871	122
14.3945	110
14.4019	126
14.4092	118
14.4166	130
14.4240	122
14.4314	113
14.4388	125
14.4462	114
14.4536	123
14.4610	108
14.4684	152
14.4758	128
14.4832	144
14.4906	154
14.4980	114
14.5054	125
14.5128	138
14.5202	158
14.5276	151
14.5350	152
14.5424	143
14.5498	135
14.5572	146
14.5645	148
14.5719	174
14.5793	160
14.5867	188
14.5941	155
14.6015	204
14.6089	211
14.6163	197
14.6237	226
14.6311	224
14.6385	267
14.6459	241
14.6533	303
14.6607	322
14.6681	341
14.6755	379
14.6829	397
14.6903	467
14.6977	545
14.7051	602
14.7125	683
14.7198	804
14.7272	887
14.7346	1016
14.7420	1096
14.7494	1267
14.7568	1466
14.7642	1442
14.7716	1514
14.7790	1478
14.7864	1492
14.7938	1462
14.8012	1378
14.8086	1248
14.8160	1111
14.8234	998
14.8308	917
14.8382	777
14.8456	720
14.8530	577
14.8604	465
14.8678	456
14.8751	387
14.8825	305
14.8899	301
14.8973	285
14.9047	261
14.9121	249
14.9195	239
14.9269	196
14.9343	230
14.9417	217
14.9491	207
14.9565	217
14.9639	185
14.9713	198
14.9787	201
14.9861	190
14.9935	152
15.0009	182
15.0083	148
15.0157	180
15.0231	171
15.0304	185
15.0378	188
15.0452	175
15.0526	186
15.0600	194
15.0674	180
15.0748	190
15.0822	190
15.0896	211
15.0970	236
15.1044	241
15.1118	288
15.1192	250
15.1266	277
15.1340	309
15.1414	327
15.1488	347
15.1562	359
15.1636	407
15.1710	504
15.1784	568
15.1857	611
15.1931	661
15.2005	817
15.2079	847
15.2153	985
15.2227	1085
15.2301	1190
15.2375	1203
15.2449	1248
15.2523	1191
15.2597	1193
15.2671	1121
15.2745	1060
15.2819	876
15.2893	836
15.2967	722
15.3041	604
15.3115	526
15.3189	494
15.3263	398
15.3337	360
15.3410	309
15.3484	297
15.3558	241
15.3632	225
15.3706	193
15.3780	213
15.3854	188
15.3928	180
15.4002	128
15.4076	159
15.4150	158
15.4224	148
15.4298	129
15.4372	134
15.4446	110
15.4520	137
15.4594	135
15.4668	145
15.4742	137
15.4816	108
15.4890	120
15.4963	127
15.5037	113
15.5111	122
15.5185	134
15.5259	104
15.5333	109
15.5407	138
15.5481	116
15.5555	130
15.5629	102
15.5703	96
15.5777	102
15.5851	115
15.5925	116
15.5999	120
15.6073	123
15.6147	115
15.6221	125
15.6295	117
15.6369	111
15.6443	116
15.6516	106
15.6590	102
15.6664	103
15.6738	127
15.6812	113
15.6886	100
15.6960	103
15.7034	114
15.7108	102
15.7182	127
15.7256	115
15.7330	101
15.7404	106
15.7478	98
15.7552	106
15.7626	105
15.7700	93
15.7774	99
15.7848	105
15.7922	100
15.7996	103
15.8070	106
15.8143	108
15.8217	104
15.8291	108
15.8365	87
15.8439	105
15.8513	100
15.8587	114
15.8661	96
15.8735	106
15.8809	96
15.8883	120
15.8957	101
15.9031	87
15.9105	95
15.9179	95
15.9253	110
15.9327	112
15.9401	104
15.9475	111
15.9549	100
15.9623	100
15.9696	108
15.9770	113
15.9844	107
15.9918	114
15.9992	100
16.0066	128
16.0140	96
16.0214	101
16.0288	103
16.0362	110
16.0436	87
16.0510	98
16.0584	128
16.0658	77
16.0732	88
16.0806	106
16.0880	100
16.0954	111
16.1028	79
16.1102	108
16.1176	90
16.1249	109
16.1323	89
16.1397	119
16.1471	115
16.1545	120
16.1619	107
16.1693	90
16.1767	82
16.1841	90
16.1915	91
16.1989	106
16.2063	103
16.2137	86
16.2211	88
16.2285	85
16.2359	96
16.2433	97
16.2507	99
16.2581	78
16.2655	101
16.2729	98
16.2802	78
16.2876	98
16.2950	83
16.3024	88
16.3098	89
16.3172	103
16.3246	82
16.3320	69
16.3394	93
16.3468	90
16.3542	108
16.3616	87
16.3690	95
16.3764	103
16.3838	94
16.3912	88
16.3986	80
16.4060	98
16.4134	103
16.4208	89
16.4282	104
16.4355	92
16.4429	91
16.4503	78
16.4577	91
16.4651	104
16.4725	105
16.4799	69
16.4873	92
16.4947	112
16.5021	101
16.5095	115
16.5169	100
16.5243	94
16.5317	97
16.5391	115
16.5465	104
16.5539	88
16.5613	90
16.5687	85
16.5761	98
16.5835	91
16.5908	87
16.5982	110
16.6056	110
16.6130	107
16.6204	104
16.6278	108
16.6352	114
16.6426	105
16.6500	123
16.6574	149
16.6648	127
16.6722	150
16.6796	128
16.6870	147
16.6944	145
16.7018	154
16.7092	169
16.7166	129
16.7240	161
16.7314	128
16.7388	127
16.7461	139
16.7535	114
16.7609	131
16.7683	121
16.7757	111
16.7831	134
16.7905	100
16.7979	103
16.8053	115
16.8127	96
16.8201	81
16.8275	84
16.8349	95
16.8423	98
16.8497	81
16.8571	93
16.8645	82
16.8719	83
16.8793	106
16.8867	76
16.8941	90
16.9014	99
16.9088	93
16.9162	104
16.9236	86
16.9310	94
16.9384	108
16.9458	102
16.9532	88
16.9606	85
16.9680	97
16.9754	87
16.9828	102
16.9902	107
16.9976	88
17.0050	92
17.0124	96
17.0198	96
17.0272	90
17.0346	98
17.0420	100
17.0494	121
17.0567	92
17.0641	103
17.0715	109
17.0789	105
17.0863	140
17.0937	121
17.1011	107
17.1085	104
17.1159	111
17.1233	99
17.1307	94
17.1381	113
17.1455	113
17.1529	91
17.1603	79
17.1677	103
17.1751	96
17.1825	106
17.1899	123
17.1973	107
17.2047	98
17.2120	109
17.2194	98
17.2268	107
17.2342	106
17.2416	108
17.2490	112
17.2564	118
17.2638	115
17.2712	110
17.2786	115
17.2860	116
17.2934	115
17.3008	106
17.3082	111
17.3156	112
17.3230	121
17.3304	106
17.3378	112
17.3452	108
17.3526	118
17.3600	130
17.3674	132
17.3747	123
17.3821	133
17.3895	120
17.3969	152
17.4043	138
17.4117	133
17.4191	137
17.4265	144
17.4339	178
17.4413	167
17.4487	178
17.4561	153
17.4635	190
17.4709	177
17.4783	196
17.4857	236
17.4931	245
17.5005	275
17.5079	241
17.5153	317
17.5227	303
17.5300	375
17.5374	404
17.5448	425
17.5522	529
17.5596	552
17.5670	665
17.5744	778
17.5818	838
17.5892	932
17.5966	978
17.6040	1024
17.6114	1081
17.6188	1074
17.6262	1097
17.6336	946
17.6410	927
17.6484	869
17.6558	792
17.6632	716
17.6706	650
17.6780	552
17.6853	502
17.6927	509
17.7001	416
17.7075	367
17.7149	366
17.7223	353
17.7297	355
17.7371	316
17.7445	337
17.7519	306
17.7593	364
17.7667	395
17.7741	394
17.7815	386
17.7889	381
17.7963	421
17.8037	354
17.8111	410
17.8185	371
17.8259	320
17.8333	305
17.8406	326
17.8480	261
17.8554	253
17.8628	230
17.8702	222
17.8776	215
17.8850	214
17.8924	153
17.8998	159
17.9072	154
17.9146	163
17.9220	126
17.9294	127
17.9368	108
17.9442	141
17.9516	146
17.9590	147
17.9664	110
17.9738	135
17.9812	159
17.9886	150
17.9959	166
18.0033	167
18.0107	168
18.0181	202
18.0255	147
18.0329	174
18.0403	158
18.0477	157
18.0551	156
18.0625	152
18.0699	148
18.0773	133
18.0847	129
18.0921	142
18.0995	126
18.1069	125
18.1143	117
18.1217	124
18.1291	116
18.1365	140
18.1439	124
18.1512	106
18.1586	129
18.1660	104
18.1734	127
18.1808	133
18.1882	103
18.1956	131
18.2030	128
18.2104	112
18.2178	124
18.2252	105
18.2326	109
18.2400	124
18.2474	138
18.2548	124
18.2622	123
18.2696	141
18.2770	133
18.2844	153
18.2918	137
18.2992	118
18.3065	156
18.3139	127
18.3213	148
18.3287	162
18.3361	148
18.3435	198
18.3509	159
18.3583	174
18.3657	184
18.3731	203
18.3805	196
18.3879	212
18.3953	218
18.4027	223
18.4101	192
18.4175	177
18.4249	209
18.4323	204
18.4397	222
18.4471	188
18.4545	196
18.4618	184
18.4692	173
18.4766	181
18.4840	178
18.4914	158
18.4988	151
18.5062	145
18.5136	146
18.5210	163
18.5284	192
18.5358	142
18.5432	164
18.5506	150
18.5580	167
18.5654	138
18.5728	169
18.5802	134
18.5876	173
18.5950	171
18.6024	163
18.6098	166
18.6171	165
18.6245	178
18.6319	174
18.6393	171
18.6467	173
18.6541	179
18.6615	223
18.6689	192
18.6763	229
18.6837	223
18.6911	217
18.6985	214
18.7059	259
18.7133	281
18.7207	293
18.7281	302
18.7355	298
18.7429	309
18.7503	389
18.7577	396
18.7651	474
18.7724	477
18.7798	510
18.7872	614
18.7946	651
18.8020	713
18.8094	775
18.8168	827
18.8242	958
18.8316	1027
18.8390	1080
18.8464	1245
18.8538	1318
18.8612	1419
18.8686	1614
18.8760	1870
18.8834	1974
18.8908	2426
18.8982	2653
18.9056	2890
18.9130	2952
18.9204	3280
18.9278	3427
18.9351	3442
18.9425	3389
18.9499	3222
18.9573	3154
18.9647	2880
18.9721	2640
18.9795	2330
18.9869	2148
18.9943	1924
19.0017	1661
19.0091	1380
19.0165	1199
19.0239	1082
19.0313	922
19.0387	806
19.0461	672
19.0535	622
19.0609	554
19.0683	477
19.0757	392
19.0831	426
19.0904	361
19.0978	358
19.1052	357
19.1126	383
19.1200	309
19.1274	317
19.1348	282
19.1422	272
19.1496	316
19.1570	268
19.1644	241
19.1718	244
19.1792	240
19.1866	243
19.1940	229
19.2014	202
19.2088	235
19.2162	211
19.2236	190
19.2310	191
19.2384	215
19.2457	207
19.2531	198
19.2605	201
19.2679	220
19.2753	195
19.2827	174
19.2901	202
19.2975	189
19.3049	187
19.3123	192
19.3197	196
19.3271	176
19.3345	197
19.3419	194
19.3493	227
19.3567	205
19.3641	198
19.3715	184
19.3789	192
19.3863	230
19.3937	216
19.4010	203
19.4084	216
19.4158	224
19.4232	255
19.4306	260
19.4380	280
19.4454	317
19.4528	296
19.4602	292
19.4676	353
19.4750	364
19.4824	481
19.4898	493
19.4972	517
19.5046	617
19.5120	685
19.5194	720
19.5268	797
19.5342	849
19.5416	891
19.5490	911
19.5563	925
19.5637	922
19.5711	865
19.5785	811
19.5859	822
19.5933	745
19.6007	675
19.6081	592
19.6155	541
19.6229	536
19.6303	435
19.6377	433
19.6451	383
19.6525	321
19.6599	280
19.6673	267
19.6747	236
19.6821	245
19.6895	194
19.6969	168
19.7043	206
19.7116	180
19.7190	182
19.7264	187
19.7338	163
19.7412	146
19.7486	164
19.7560	161
19.7634	157
19.7708	149
19.7782	122
19.7856	140
19.7930	160
19.8004	131
19.8078	152
19.8152	123
19.8226	137
19.8300	139
19.8374	152
19.8448	144
19.8522	123
19.8596	123
19.8669	109
19.8743	142
19.8817	124
19.8891	153
19.8965	120
19.9039	123
19.9113	129
19.9187	134
19.9261	120
19.9335	116
19.9409	127
19.9483	109
19.9557	112
19.9631	108
19.9705	118
19.9779	122
19.9853	110
19.9927	140
20.0001	142
20.0075	128
20.0149	131
20.0222	124
20.0296	134
20.0370	115
20.0444	119
20.0518	120
20.0592	133
20.0666	115
20.0740	123
20.0814	129
20.0888	126
20.0962	122
20.1036	138
20.1110	138
20.1184	129
20.1258	130
20.1332	131
20.1406	141
20.1480	138
20.1554	144
20.1628	156
20.1702	145
20.1775	148
20.1849	168
20.1923	162
20.1997	182
20.2071	188
20.2145	212
20.2219	228
20.2293	241
20.2367	279
20.2441	279
20.2515	325
20.2589	349
20.2663	401
20.2737	404
20.2811	492
20.2885	465
20.2959	496
20.3033	488
20.3107	472
20.3181	430
20.3255	418
20.3328	386
20.3402	380
20.3476	348
20.3550	344
20.3624	300
20.3698	257
20.3772	257
20.3846	204
20.3920	209
20.3994	220
20.4068	199
20.4142	184
20.4216	191
20.4290	168
20.4364	187
20.4438	170
20.4512	209
20.4586	172
20.4660	169
20.4734	171
20.4808	178
20.4882	158
20.4955	171
20.5029	180
20.5103	173
20.5177	196
20.5251	193
20.5325	184
20.5399	172
20.5473	197
20.5547	207
20.5621	188
20.5695	212
20.5769	193
20.5843	193
20.5917	200
20.5991	226
20.6065	233
20.6139	203
20.6213	268
20.6287	255
20.6361	254
20.6435	249
20.6508	258
20.6582	275
20.6656	300
20.6730	307
20.6804	347
20.6878	326
20.6952	391
20.7026	445
20.7100	465
20.7174	507
20.7248	557
20.7322	618
20.7396	638
20.7470	703
20.7544	704
20.7618	731
20.7692	717
20.7766	713
20.7840	708
20.7914	667
20.7988	666
20.8061	661
20.8135	665
20.8209	611
20.8283	607
20.8357	562
20.8431	641
20.8505	643
20.8579	719
20.8653	723
20.8727	703
20.8801	817
20.8875	901
20.8949	923
20.9023	1093
20.9097	1186
20.9171	1343
20.9245	1584
20.9319	1764
20.9393	1947
20.9467	2104
20.9541	2440
20.9614	2523
20.9688	2637
20.9762	2798
20.9836	2714
20.9910	2679
20.9984	2595
21.0058	2502
21.0132	2314
21.0206	2230
21.0280	1987
21.0354	1927
21.0428	1661
21.0502	1548
21.0576	1288
21.0650	1072
21.0724	1042
21.0798	854
21.0872	790
21.0946	695
21.1020	581
21.1094	511
21.1167	529
21.1241	448
21.1315	448
21.1389	399
21.1463	383
21.1537	398
21.1611	333
21.1685	309
21.1759	322
21.1833	282
21.1907	257
21.1981	272
21.2055	274
21.2129	244
21.2203	241
21.2277	251
21.2351	233
21.2425	230
21.2499	217
21.2573	217
21.2647	228
21.2720	229
21.2794	193
21.2868	184
21.2942	191
21.3016	189
21.3090	180
21.3164	201
21.3238	194
21.3312	194
21.3386	172
21.3460	196
21.3534	194
21.3608	198
21.3682	176
21.3756	182
21.3830	176
21.3904	171
21.3978	174
21.4052	155
21.4126	189
21.4200	174
21.4273	170
21.4347	192
21.4421	200
21.4495	168
21.4569	196
21.4643	223
21.4717	188
21.4791	207
21.4865	232
21.4939	284
21.5013	256
21.5087	255
21.5161	328
21.5235	346
21.5309	377
21.5383	423
21.5457	520
21.5531	555
21.5605	573
21.5679	703
21.5753	694
21.5826	663
21.5900	665
21.5974	686
21.6048	585
21.6122	610
21.6196	554
21.6270	542
21.6344	492
21.6418	466
21.6492	424
21.6566	343
21.6640	324
21.6714	291
21.6788	225
21.6862	248
21.6936	229
21.7010	221
21.7084	191
21.7158	203
21.7232	203
21.7306	183
21.7379	215
21.7453	215
21.7527	223
21.7601	216
21.7675	201
21.7749	213
21.7823	231
21.7897	192
21.7971	229
21.8045	249
21.8119	216
21.8193	221
21.8267	199
21.8341	195
21.8415	191
21.8489	179
21.8563	180
21.8637	131
21.8711	160
21.8785	132
21.8859	139
21.8932	150
21.9006	125
21.9080	132
21.9154	120
21.9228	142
21.9302	110
21.9376	138
21.9450	128
21.9524	117
21.9598	128
21.9672	119
21.9746	118
21.9820	99
21.9894	99
21.9968	120
22.0042	110
22.0116	117
22.0190	121
22.0264	104
22.0338	110
22.0412	125
22.0485	118
22.0559	125
22.0633	131
22.0707	92
22.0781	115
22.0855	108
22.0929	108
22.1003	102
22.1077	99
22.1151	101
22.1225	115
22.1299	120
22.1373	111
22.1447	127
22.1521	95
22.1595	122
22.1669	91
22.1743	112
22.1817	106
22.1891	103
22.1965	88
22.2039	109
22.2112	112
22.2186	105
22.2260	101
22.2334	86
22.2408	105
22.2482	106
22.2556	97
22.2630	118
22.2704	96
22.2778	94
22.2852	107
22.2926	94
22.3000	94
22.3074	102
22.3148	98
22.3222	114
22.3296	92
22.3370	104
22.3444	116
22.3518	95
22.3592	96
22.3665	93
22.3739	123
22.3813	116
22.3887	113
22.3961	108
22.4035	120
22.4109	122
22.4183	104
22.4257	96
22.4331	107
22.4405	83
22.4479	102
22.4553	126
22.4627	106
22.4701	125
22.4775	84
22.4849	108
22.4923	104
22.4997	103
22.5071	102
22.5145	95
22.5218	104
22.5292	118
22.5366	101
22.5440	105
22.5514	126
22.5588	109
22.5662	101
22.5736	125
22.5810	106
22.5884	107
22.5958	115
22.6032	92
22.6106	88
22.6180	116
22.6254	115
22.6328	92
22.6402	97
22.6476	86
22.6550	97
22.6624	94
22.6698	103
22.6771	101
22.6845	103
22.6919	84
22.6993	128
22.7067	104
22.7141	98
22.7215	96
22.7289	99
22.7363	111
22.7437	111
22.7511	101
22.7585	125
22.7659	124
22.7733	98
22.7807	119
22.7881	123
22.7955	113
22.8029	123
22.8103	125
22.8177	123
22.8251	128
22.8324	128
22.8398	155
22.8472	139
22.8546	162
22.8620	152
22.8694	145
22.8768	148
22.8842	152
22.8916	160
22.8990	144
22.9064	125
22.9138	163
22.9212	148
22.9286	138
22.9360	131
22.9434	115
22.9508	117
22.9582	105
22.9656	129
22.9730	113
22.9804	95
22.9877	98
22.9951	94
23.0025	115
23.0099	107
23.0173	90
23.0247	105
23.0321	116
23.0395	112
23.0469	111
23.0543	104
23.0617	108
23.0691	107
23.0765	108
23.0839	117
23.0913	113
23.0987	99
23.1061	110
23.1135	95
23.1209	97
23.1283	75
23.1357	108
23.1430	112
23.1504	99
23.1578	105
23.1652	105
23.1726	110
23.1800	90
23.1874	99
23.1948	97
23.2022	111
23.2096	93
23.2170	108
23.2244	106
23.2318	94
23.2392	116
23.2466	81
23.2540	99
23.2614	94
23.2688	98
23.2762	100
23.2836	99
23.2910	106
23.2983	93
23.3057	101
23.3131	97
23.3205	119
23.3279	102
23.3353	95
23.3427	120
23.3501	90
23.3575	107
23.3649	102
23.3723	99
23.3797	116
23.3871	109
23.3945	101
23.4019	110
23.4093	91
23.4167	102
23.4241	118
23.4315	110
23.4389	108
23.4463	82
23.4536	105
23.4610	93
23.4684	93
23.4758	107
23.4832	113
23.4906	117
23.4980	94
23.5054	105
23.5128	107
23.5202	95
23.5276	96
23.5350	113
23.5424	112
23.5498	113
23.5572	102
23.5646	107
23.5720	125
23.5794	111
23.5868	104
23.5942	117
23.6016	100
23.6089	120
23.6163	125
23.6237	120
23.6311	118
23.6385	123
23.6459	120
23.6533	113
23.6607	101
23.6681	113
23.6755	134
23.6829	145
23.6903	115
23.6977	124
23.7051	148
23.7125	147
23.7199	130
23.7273	137
23.7347	135
23.7421	94
23.7495	118
23.7569	123
23.7643	128
23.7716	119
23.7790	114
23.7864	130
23.7938	120
23.8012	109
23.8086	153
23.8160	145
23.8234	140
23.8308	142
23.8382	162
23.8456	162
23.8530	152
23.8604	152
23.8678	140
23.8752	145
23.8826	155
23.8900	164
23.8974	187
23.9048	164
23.9122	222
23.9196	210
23.9269	221
23.9343	208
23.9417	244
23.9491	248
23.9565	247
23.9639	289
23.9713	279
23.9787	318
23.9861	343
23.9935	340
24.0009	439
24.0083	490
24.0157	583
24.0231	612
24.0305	701
24.0379	851
24.0453	967
24.0527	1012
24.0601	1149
24.0675	1268
24.0749	1283
24.0822	1263
24.0896	1246
24.0970	1163
24.1044	1064
24.1118	1015
24.1192	1019
24.1266	935
24.1340	877
24.1414	825
24.1488	720
24.1562	677
24.1636	607
24.1710	508
24.1784	446
24.1858	383
24.1932	385
24.2006	329
24.2080	312
24.2154	284
24.2228	295
24.2302	272
24.2375	260
24.2449	252
24.2523	241
24.2597	235
24.2671	246
24.2745	241
24.2819	244
24.2893	242
24.2967	293
24.3041	278
24.3115	265
24.3189	270
24.3263	306
24.3337	314
24.3411	340
24.3485	326
24.3559	332
24.3633	350
24.3707	310
24.3781	328
24.3855	347
24.3928	315
24.4002	270
24.4076	301
24.4150	293
24.4224	287
24.4298	301
24.4372	268
24.4446	284
24.4520	230
24.4594	198
24.4668	236
24.4742	227
24.4816	223
24.4890	230
24.4964	228
24.5038	235
24.5112	229
24.5186	251
24.5260	242
24.5334	250
24.5408	284
24.5481	253
24.5555	239
24.5629	256
24.5703	308
24.5777	292
24.5851	302
24.5925	316
24.5999	334
24.6073	364
24.6147	378
24.6221	429
24.6295	391
24.6369	377
24.6443	398
24.6517	422
24.6591	413
24.6665	438
24.6739	443
24.6813	436
24.6887	466
24.6961	477
24.7034	475
24.7108	533
24.7182	544
24.7256	603
24.7330	596
24.7404	636
24.7478	751
24.7552	776
24.7626	878
24.7700	926
24.7774	1058
24.7848	1085
24.7922	1164
24.7996	1226
24.8070	1239
24.8144	1287
24.8218	1238
24.8292	1182
24.8366	1218
24.8440	1176
24.8514	1174
24.8587	1125
24.8661	1117
24.8735	1142
24.8809	1081
24.8883	991
24.8957	963
24.9031	1006
24.9105	933
24.9179	997
24.9253	1019
24.9327	1093
24.9401	1112
24.9475	1210
24.9549	1377
24.9623	1531
24.9697	1801
24.9771	2000
24.9845	2248
24.9919	2425
24.9993	2836
25.0067	2964
25.0140	3099
25.0214	3020
25.0288	2892
25.0362	2852
25.0436	2680
25.0510	2617
25.0584	2429
25.0658	2280
25.0732	2166
25.0806	1974
25.0880	1836
25.0954	1621
25.1028	1436
25.1102	1277
25.1176	1118
25.1250	942
25.1324	840
25.1398	729
25.1472	621
25.1546	530
25.1620	484
25.1693	465
25.1767	439
25.1841	400
25.1915	389
25.1989	351
25.2063	335
25.2137	336
25.2211	290
25.2285	279
25.2359	273
25.2433	261
25.2507	243
25.2581	251
25.2655	269
25.2729	240
25.2803	247
25.2877	215
25.2951	210
25.3025	236
25.3099	209
25.3173	198
25.3247	194
25.3320	218
25.3394	186
25.3468	189
25.3542	164
25.3616	199
25.3690	192
25.3764	175
25.3838	188
25.3912	185
25.3986	169
25.4060	167
25.4134	160
25.4208	186
25.4282	187
25.4356	166
25.4430	169
25.4504	135
25.4578	159
25.4652	168
25.4726	172
25.4800	136
25.4873	185
25.4947	173
25.5021	144
25.5095	156
25.5169	156
25.5243	161
25.5317	137
25.5391	166
25.5465	159
25.5539	153
25.5613	168
25.5687	164
25.5761	168
25.5835	166
25.5909	147
25.5983	161
25.6057	172
25.6131	150
25.6205	169
25.6279	199
25.6353	150
25.6426	182
25.6500	179
25.6574	170
25.6648	197
25.6722	196
25.6796	216
25.6870	171
25.6944	185
25.7018	205
25.7092	223
25.7166	209
25.7240	208
25.7314	230
25.7388	241
25.7462	250
25.7536	248
25.7610	252
25.7684	235
25.7758	246
25.7832	218
25.7906	208
25.7979	222
25.8053	194
25.8127	228
25.8201	206
25.8275	199
25.8349	190
25.8423	181
25.8497	175
25.8571	171
25.8645	177
25.8719	166
25.8793	191
25.8867	187
25.8941	166
25.9015	164
25.9089	169
25.9163	191
25.9237	152
25.9311	168
25.9385	187
25.9459	169
25.9532	157
25.9606	173
25.9680	181
25.9754	178
25.9828	174
25.9902	138
25.9976	155
26.0050	162
26.0124	173
26.0198	157
26.0272	183
26.0346	164
26.0420	172
26.0494	179
26.0568	185
26.0642	166
26.0716	188
26.0790	171
26.0864	209
26.0938	173
26.1012	202
26.1085	187
26.1159	175
26.1233	167
26.1307	153
26.1381	193
26.1455	176
26.1529	171
26.1603	196
26.1677	195
26.1751	171
26.1825	193
26.1899	194
26.1973	203
26.2047	203
26.2121	224
26.2195	195
26.2269	195
26.2343	202
26.2417	203
26.2491	215
26.2565	207
26.2638	256
26.2712	240
26.2786	219
26.2860	217
26.2934	270
26.3008	247
26.3082	237
26.3156	272
26.3230	287
26.3304	299
26.3378	255
26.3452	295
26.3526	297
26.3600	291
26.3674	373
26.3748	336
26.3822	346
26.3896	374
26.3970	372
26.4044	434
26.4118	469
26.4191	501
26.4265	530
26.4339	575
26.4413	653
26.4487	696
26.4561	774
26.4635	818
26.4709	962
26.4783	1084
26.4857	1154
26.4931	1417
26.5005	1630
26.5079	1868
26.5153	2133
26.5227	2407
26.5301	2551
26.5375	2889
26.5449	2963
26.5523	3052
26.5597	3061
26.5671	3100
26.5744	3011
26.5818	2858
26.5892	2691
26.5966	2714
26.6040	2545
26.6114	2435
26.6188	2479
26.6262	2188
26.6336	2183
26.6410	1815
26.6484	1703
26.6558	1454
26.6632	1339
26.6706	1230
26.6780	1040
26.6854	927
26.6928	840
26.7002	754
26.7076	725
26.7150	658
26.7224	602
26.7297	562
26.7371	538
26.7445	493
26.7519	471
26.7593	417
26.7667	400
26.7741	408
26.7815	383
26.7889	367
26.7963	314
26.8037	344
26.8111	315
26.8185	325
26.8259	293
26.8333	284
26.8407	247
26.8481	293
26.8555	266
26.8629	278
26.8703	225
26.8777	236
26.8850	271
26.8924	253
26.8998	230
26.9072	246
26.9146	243
26.9220	224
26.9294	234
26.9368	218
26.9442	224
26.9516	214
26.9590	219
26.9664	196
26.9738	224
26.9812	178
26.9886	208
26.9960	192
27.0034	214
27.0108	234
27.0182	178
27.0256	175
27.0330	176
27.0404	202
27.0477	183
27.0551	220
27.0625	223
27.0699	182
27.0773	169
27.0847	191
27.0921	186
27.0995	174
27.1069	178
27.1143	198
27.1217	200
27.1291	179
27.1365	190
27.1439	182
27.1513	216
27.1587	183
27.1661	191
27.1735	207
27.1809	194
27.1883	235
27.1957	196
27.2030	199
27.2104	226
27.2178	217
27.2252	237
27.2326	203
27.2400	234
27.2474	244
27.2548	291
27.2622	287
27.2696	283
27.2770	295
27.2844	357
27.2918	354
27.2992	400
27.3066	378
27.3140	394
27.3214	409
27.3288	370
27.3362	394
27.3436	402
27.3510	399
27.3583	371
27.3657	399
27.3731	364
27.3805	363
27.3879	333
27.3953	338
27.4027	291
27.4101	291
27.4175	289
27.4249	259
27.4323	241
27.4397	240
27.4471	233
27.4545	239
27.4619	220
27.4693	239
27.4767	176
27.4841	198
27.4915	202
27.4989	234
27.5063	184
27.5136	210
27.5210	202
27.5284	193
27.5358	216
27.5432	216
27.5506	220
27.5580	214
27.5654	230
27.5728	216
27.5802	205
27.5876	242
27.5950	203
27.6024	237
27.6098	199
27.6172	242
27.6246	229
27.6320	247
27.6394	233
27.6468	238
27.6542	241
27.6616	238
27.6689	239
27.6763	247
27.6837	268
27.6911	271
27.6985	327
27.7059	339
27.7133	328
27.7207	349
27.7281	351
27.7355	381
27.7429	393
27.7503	424
27.7577	483
27.7651	516
27.7725	568
27.7799	653
27.7873	735
27.7947	741
27.8021	775
27.8095	947
27.8169	1089
27.8242	1142
27.8316	1270
27.8390	1434
27.8464	1525
27.8538	1581
27.8612	1550
27.8686	1462
27.8760	1472
27.8834	1432
27.8908	1354
27.8982	1282
27.9056	1247
27.9130	1251
27.9204	1125
27.9278	1128
27.9352	1057
27.9426	1029
27.9500	1026
27.9574	892
27.9648	843
27.9722	868
27.9795	855
27.9869	807
27.9943	769
28.0017	810
28.0091	778
28.0165	783
28.0239	791
28.0313	808
28.0387	727
28.0461	742
28.0535	697
28.0609	651
28.0683	673
28.0757	639
28.0831	582
28.0905	520
28.0979	548
28.1053	497
28.1127	506
28.1201	448
28.1275	421
28.1348	448
28.1422	446
28.1496	399
28.1570	409
28.1644	437
28.1718	379
28.1792	428
28.1866	417
28.1940	412
28.2014	405
28.2088	400
28.2162	418
28.2236	354
28.2310	375
28.2384	361
28.2458	344
28.2532	342
28.2606	340
28.2680	341
28.2754	307
28.2828	285
28.2901	267
28.2975	263
28.3049	265
28.3123	236
28.3197	222
28.3271	209
28.3345	190
28.3419	206
28.3493	184
28.3567	178
28.3641	194
28.3715	169
28.3789	178
28.3863	175
28.3937	153
28.4011	188
28.4085	176
28.4159	152
28.4233	164
28.4307	168
28.4381	143
28.4454	158
28.4528	168
28.4602	150
28.4676	153
28.4750	139
28.4824	138
28.4898	152
28.4972	133
28.5046	140
28.5120	155
28.5194	167
28.5268	127
28.5342	144
28.5416	149
28.5490	159
28.5564	138
28.5638	136
28.5712	127
28.5786	127
28.5860	124
28.5934	129
28.6008	131
28.6081	142
28.6155	129
28.6229	119
28.6303	138
28.6377	125
28.6451	134
28.6525	133
28.6599	120
28.6673	140
28.6747	133
28.6821	127
28.6895	106
28.6969	144
28.7043	134
28.7117	125
28.7191	130
28.7265	128
28.7339	156
28.7413	156
28.7487	142
28.7561	133
28.7634	122
28.7708	119
28.7782	122
28.7856	151
28.7930	145
28.8004	122
28.8078	98
28.8152	130
28.8226	142
28.8300	138
28.8374	108
28.8448	114
28.8522	102
28.8596	128
28.8670	139
28.8744	130
28.8818	120
28.8892	131
28.8966	116
28.9040	124
28.9114	113
28.9187	148
28.9261	122
28.9335	142
28.9409	114
28.9483	150
28.9557	122
28.9631	144
28.9705	138
28.9779	148
28.9853	140
28.9927	137
29.0001	133
29.0075	126
29.0149	134
29.0223	127
29.0297	119
29.0371	132
29.0445	109
29.0519	124
29.0593	123
29.0667	116
29.0740	125
29.0814	123
29.0888	120
29.0962	129
29.1036	117
29.1110	125
29.1184	129
29.1258	113
29.1332	120
29.1406	130
29.1480	137
29.1554	127
29.1628	108
29.1702	120
29.1776	117
29.1850	134
29.1924	125
29.1998	142
29.2072	125
29.2146	126
29.2220	147
29.2293	116
29.2367	121
29.2441	137
29.2515	122
29.2589	158
29.2663	129
29.2737	146
29.2811	129
29.2885	152
29.2959	174
29.3033	153
29.3107	155
29.3181	147
29.3255	171
29.3329	161
29.3403	173
29.3477	181
29.3551	160
29.3625	162
29.3699	191
29.3773	206
29.3846	186
29.3920	238
29.3994	236
29.4068	212
29.4142	276
29.4216	249
29.4290	280
29.4364	270
29.4438	270
29.4512	266
29.4586	269
29.4660	269
29.4734	246
29.4808	263
29.4882	241
29.4956	236
29.5030	221
29.5104	217
29.5178	216
29.5252	209
29.5326	205
29.5399	196
29.5473	180
29.5547	212
29.5621	183
29.5695	188
29.5769	211
29.5843	191
29.5917	180
29.5991	177
29.6065	196
29.6139	199
29.6213	191
29.6287	191
29.6361	193
29.6435	186
29.6509	214
29.6583	218
29.6657	215
29.6731	234
29.6805	235
29.6879	278
29.6952	284
29.7026	298
29.7100	264
29.7174	303
29.7248	290
29.7322	333
29.7396	311
29.7470	269
29.7544	283
29.7618	312
29.7692	248
29.7766	272
29.7840	244
29.7914	232
29.7988	230
29.8062	267
29.8136	223
29.8210	257
29.8284	201
29.8358	212
29.8432	153
29.8505	218
29.8579	206
29.8653	186
29.8727	173
29.8801	188
29.8875	178
29.8949	167
29.9023	171
29.9097	172
29.9171	168
29.9245	181
29.9319	170
29.9393	193
29.9467	171
29.9541	195
29.9615	213
29.9689	209
29.9763	225
29.9837	234
29.9911	258
29.9985	280
30.0058	287
30.0132	318
30.0206	335
30.0280	361
30.0354	389
30.0428	351
30.0502	382
30.0576	403
30.0650	353
30.0724	339
30.0798	327
30.0872	313
30.0946	332
30.1020	344
30.1094	322
30.1168	320
30.1242	321
30.1316	357
30.1390	268
30.1464	294
30.1538	291
30.1612	280
30.1685	288
30.1759	258
30.1833	299
30.1907	254
30.1981	245
30.2055	241
30.2129	267
30.2203	263
30.2277	256
30.2351	290
30.2425	281
30.2499	255
30.2573	282
30.2647	302
30.2721	306
30.2795	317
30.2869	310
30.2943	310
30.3017	343
30.3091	347
30.3165	361
30.3238	384
30.3312	406
30.3386	398
30.3460	398
30.3534	423
30.3608	478
30.3682	439
30.3756	435
30.3830	516
30.3904	536
30.3978	531
30.4052	589
30.4126	557
30.4200	597
30.4274	594
30.4348	581
30.4422	573
30.4496	484
30.4570	507
30.4644	439
30.4718	443
30.4791	408
30.4865	439
30.4939	393
30.5013	385
30.5087	337
30.5161	343
30.5235	333
30.5309	303
30.5383	285
30.5457	265
30.5531	276
30.5605	243
30.5679	226
30.5753	227
30.5827	212
30.5901	229
30.5975	238
30.6049	235
30.6123	236
30.6197	226
30.6271	235
30.6344	221
30.6418	248
30.6492	264
30.6566	260
30.6640	243
30.6714	235
30.6788	219
30.6862	236
30.6936	265
30.7010	241
30.7084	187
30.7158	245
30.7232	221
30.7306	221
30.7380	222
30.7454	202
30.7528	204
30.7602	186
30.7676	205
30.7750	188
30.7824	177
30.7897	167
30.7971	161
30.8045	166
30.8119	166
30.8193	157
30.8267	165
30.8341	165
30.8415	164
30.8489	153
30.8563	203
30.8637	180
30.8711	220
30.8785	195
30.8859	207
30.8933	217
30.9007	213
30.9081	231
30.9155	219
30.9229	191
30.9303	162
30.9377	186
30.9450	163
30.9524	179
30.9598	160
30.9672	187
30.9746	167
30.9820	181
30.9894	148
30.9968	137
31.0042	150
31.0116	136
31.0190	119
31.0264	132
31.0338	125
31.0412	128
31.0486	118
31.0560	104
31.0634	114
31.0708	128
31.0782	113
31.0856	110
31.0930	97
31.1003	107
31.1077	108
31.1151	104
31.1225	110
31.1299	114
31.1373	138
31.1447	127
31.1521	132
31.1595	112
31.1669	111
31.1743	108
31.1817	115
31.1891	120
31.1965	107
31.2039	112
31.2113	106
31.2187	127
31.2261	112
31.2335	120
31.2409	112
31.2483	108
31.2556	134
31.2630	97
31.2704	113
31.2778	94
31.2852	116
31.2926	88
31.3000	128
31.3074	110
31.3148	87
31.3222	89
31.3296	99
31.3370	109
31.3444	91
31.3518	108
31.3592	94
31.3666	105
31.3740	114
31.3814	110
31.3888	111
31.3962	101
31.4036	107
31.4109	104
31.4183	103
31.4257	93
31.4331	102
31.4405	94
31.4479	93
31.4553	105
31.4627	82
31.4701	127
31.4775	103
31.4849	83
31.4923	99
31.4997	110
31.5071	99
31.5145	94
31.5219	106
31.5293	108
31.5367	84
31.5441	107
31.5515	98
31.5589	88
31.5662	86
31.5736	97
31.5810	101
31.5884	97
31.5958	92
31.6032	95
31.6106	95
31.6180	101
31.6254	98
31.6328	116
31.6402	96
31.6476	80
31.6550	101
31.6624	88
31.6698	108
31.6772	115
31.6846	95
31.6920	108
31.6994	91
31.7068	98
31.7142	105
31.7215	92
31.7289	95
31.7363	102
31.7437	104
31.7511	100
31.7585	83
31.7659	92
31.7733	100
31.7807	100
31.7881	114
31.7955	123
31.8029	114
31.8103	122
31.8177	105
31.8251	109
31.8325	118
31.8399	122
31.8473	92
31.8547	120
31.8621	110
31.8695	100
31.8769	126
31.8842	145
31.8916	131
31.8990	126
31.9064	122
31.9138	163
31.9212	166
31.9286	165
31.9360	180
31.9434	176
31.9508	230
31.9582	232
31.9656	251
31.9730	256
31.9804	235
31.9878	288
31.9952	266
32.0026	256
32.0100	245
32.0174	238
32.0248	243
32.0322	195
32.0395	210
32.0469	210
32.0543	183
32.0617	217
32.0691	205
32.0765	196
32.0839	176
32.0913	187
32.0987	168
32.1061	145
32.1135	156
32.1209	162
32.1283	117
32.1357	138
32.1431	138
32.1505	124
32.1579	121
32.1653	126
32.1727	112
32.1801	127
32.1875	109
32.1948	108
32.2022	112
32.2096	107
32.2170	111
32.2244	106
32.2318	107
32.2392	96
32.2466	123
32.2540	112
32.2614	98
32.2688	98
32.2762	95
32.2836	90
32.2910	97
32.2984	98
32.3058	106
32.3132	95
32.3206	115
32.3280	83
32.3354	97
32.3428	92
32.3501	87
32.3575	83
32.3649	90
32.3723	85
32.3797	123
32.3871	84
32.3945	104
32.4019	100
32.4093	103
32.4167	79
32.4241	110
32.4315	113
32.4389	88
32.4463	86
32.4537	98
32.4611	98
32.4685	83
32.4759	94
32.4833	89
32.4907	93
32.4981	105
32.5054	99
32.5128	121
32.5202	86
32.5276	80
32.5350	87
32.5424	111
32.5498	99
32.5572	97
32.5646	96
32.5720	98
32.5794	86
32.5868	100
32.5942	104
32.6016	101
32.6090	107
32.6164	100
32.6238	107
32.6312	108
32.6386	100
32.6460	87
32.6534	94
32.6607	123
32.6681	100
32.6755	88
32.6829	108
32.6903	109
32.6977	89
32.7051	103
32.7125	120
32.7199	100
32.7273	108
32.7347	114
32.7421	103
32.7495	99
32.7569	82
32.7643	119
32.7717	107
32.7791	109
32.7865	92
32.7939	108
32.8013	96
32.8087	106
32.8160	96
32.8234	92
32.8308	108
32.8382	86
32.8456	86
32.8530	95
32.8604	92
32.8678	84
32.8752	103
32.8826	84
32.8900	89
32.8974	109
32.9048	104
32.9122	107
32.9196	91
32.9270	94
32.9344	81
32.9418	102
32.9492	94
32.9566	96
32.9640	84
32.9713	79
32.9787	96
32.9861	88
32.9935	70
33.0009	94
33.0083	100
33.0157	89
33.0231	106
33.0305	93
33.0379	80
33.0453	93
33.0527	92
33.0601	92
33.0675	86
33.0749	94
33.0823	89
33.0897	86
33.0971	96
33.1045	77
33.1119	86
33.1193	82
33.1266	103
33.1340	103
33.1414	105
33.1488	90
33.1562	86
33.1636	104
33.1710	100
33.1784	108
33.1858	103
33.1932	91
33.2006	87
33.2080	86
33.2154	108
33.2228	96
33.2302	90
33.2376	97
33.2450	76
33.2524	97
33.2598	108
33.2672	81
33.2746	97
33.2819	87
33.2893	101
33.2967	91
33.3041	73
33.3115	98
33.3189	99
33.3263	99
33.3337	95
33.3411	84
33.3485	97
33.3559	93
33.3633	89
33.3707	103
33.3781	86
33.3855	89
33.3929	80
33.4003	83
33.4077	89
33.4151	87
33.4225	89
33.4299	81
33.4373	111
33.4446	83
33.4520	116
33.4594	88
33.4668	87
33.4742	104
33.4816	89
33.4890	93
33.4964	84
33.5038	102
33.5112	101
33.5186	80
33.5260	94
33.5334	86
33.5408	93
33.5482	95
33.5556	75
33.5630	83
33.5704	76
33.5778	107
33.5852	91
33.5926	94
33.5999	92
33.6073	94
33.6147	116
33.6221	98
33.6295	109
33.6369	96
33.6443	94
33.6517	99
33.6591	109
33.6665	133
33.6739	115
33.6813	101
33.6887	111
33.6961	116
33.7035	108
33.7109	110
33.7183	101
33.7257	148
33.7331	114
33.7405	122
33.7479	111
33.7552	106
33.7626	110
33.7700	108
33.7774	119
33.7848	94
33.7922	109
33.7996	85
33.8070	119
33.8144	109
33.8218	104
33.8292	103
33.8366	104
33.8440	108
33.8514	108
33.8588	94
33.8662	98
33.8736	90
33.8810	88
33.8884	90
33.8958	105
33.9032	92
33.9105	103
33.9179	92
33.9253	109
33.9327	96
33.9401	85
33.9475	93
33.9549	111
33.9623	90
33.9697	96
33.9771	105
33.9845	79
33.9919	82
33.9993	116
34.0067	93
34.0141	82
34.0215	100
34.0289	85
34.0363	82
34.0437	78
34.0511	88
34.0585	99
34.0658	106
34.0732	73
34.0806	111
34.0880	98
34.0954	107
34.1028	84
34.1102	88
34.1176	94
34.1250	79
34.1324	90
34.1398	77
34.1472	84
34.1546	87
34.1620	91
34.1694	107
34.1768	88
34.1842	101
34.1916	91
34.1990	91
34.2064	92
34.2138	96
34.2211	74
34.2285	91
34.2359	93
34.2433	77
34.2507	83
34.2581	92
34.2655	85
34.2729	82
34.2803	95
34.2877	72
34.2951	86
34.3025	78
34.3099	82
34.3173	89
34.3247	81
34.3321	94
34.3395	90
34.3469	74
34.3543	87
34.3617	110
34.3691	86
34.3764	95
34.3838	85
34.3912	83
34.3986	82
34.4060	82
34.4134	96
34.4208	86
34.4282	99
34.4356	81
34.4430	77
34.4504	90
34.4578	100
34.4652	89
34.4726	94
34.4800	99
34.4874	94
34.4948	116
34.5022	87
34.5096	95
34.5170	88
34.5244	113
34.5317	118
34.5391	108
34.5465	115
34.5539	104
34.5613	125
34.5687	118
34.5761	131
34.5835	135
34.5909	132
34.5983	118
34.6057	106
34.6131	136
34.6205	113
34.6279	135
34.6353	130
34.6427	128
34.6501	112
34.6575	123
34.6649	111
34.6723	103
34.6797	142
34.6870	121
34.6944	105
34.7018	113
34.7092	110
34.7166	99
34.7240	88
34.7314	108
34.7388	127
34.7462	80
34.7536	112
34.7610	97
34.7684	100
34.7758	111
34.7832	101
34.7906	102
34.7980	89
34.8054	116
34.8128	96
34.8202	101
34.8276	87
34.8350	102
34.8423	108
34.8497	87
34.8571	94
34.8645	91
34.8719	103
34.8793	94
34.8867	87
34.8941	99
34.9015	109
34.9089	101
34.9163	102
34.9237	86
34.9311	83
34.9385	97
34.9459	92
34.9533	88
34.9607	103
34.9681	91
34.9755	105
34.9829	102
34.9903	79
34.9977	93
35.0050	95
35.0124	86
35.0198	103
35.0272	100
35.0346	79
35.0420	89
35.0494	91
35.0568	86
35.0642	86
35.0716	94
35.0790	116
35.0864	86
35.0938	95
35.1012	92
35.1086	80
35.1160	97
35.1234	76
35.1308	92
35.1382	81
35.1456	92
35.1530	106
35.1603	88
35.1677	101
35.1751	80
35.1825	93
35.1899	87
35.1973	96
35.2047	78
35.2121	87
35.2195	84
35.2269	83
35.2343	102
35.2417	90
35.2491	99
35.2565	88
35.2639	81
35.2713	83
35.2787	100
35.2861	108
35.2935	87
35.3009	86
35.3083	93
35.3156	90
35.3230	97
35.3304	105
35.3378	86
35.3452	94
35.3526	100
35.3600	95
35.3674	92
35.3748	90
35.3822	103
35.3896	87
35.3970	112
35.4044	90
35.4118	88
35.4192	97
35.4266	100
35.4340	112
35.4414	79
35.4488	95
35.4562	107
35.4636	104
35.4709	109
35.4783	118
35.4857	94
35.4931	91
35.5005	102
35.5079	103
35.5153	110
35.5227	101
35.5301	107
35.5375	107
35.5449	118
35.5523	116
35.5597	114
35.5671	129
35.5745	129
35.5819	145
35.5893	119
35.5967	123
35.6041	131
35.6115	110
35.6189	100
35.6262	120
35.6336	124
35.6410	111
35.6484	113
35.6558	130
35.6632	108
35.6706	139
35.6780	118
35.6854	125
35.6928	129
35.7002	132
35.7076	123
35.7150	122
35.7224	128
35.7298	154
35.7372	140
35.7446	141
35.7520	121
35.7594	142
35.7668	156
35.7742	160
35.7815	152
35.7889	170
35.7963	165
35.8037	157
35.8111	170
35.8185	154
35.8259	199
35.8333	200
35.8407	221
35.8481	203
35.8555	234
35.8629	224
35.8703	230
35.8777	233
35.8851	228
35.8925	218
35.8999	197
35.9073	192
35.9147	201
35.9221	237
35.9295	214
35.9368	229
35.9442	192
35.9516	219
35.9590	211
35.9664	184
35.9738	190
35.9812	191
35.9886	163
35.9960	172
36.0034	135
36.0108	139
36.0182	149
36.0256	139
36.0330	154
36.0404	145
36.0478	144
36.0552	148
36.0626	141
36.0700	125
36.0774	110
36.0848	130
36.0921	124
36.0995	117
36.1069	135
36.1143	127
36.1217	132
36.1291	121
36.1365	132
36.1439	121
36.1513	123
36.1587	122
36.1661	143
36.1735	118
36.1809	110
36.1883	131
36.1957	130
36.2031	127
36.2105	115
36.2179	122
36.2253	114
36.2327	113
36.2401	113
36.2474	103
36.2548	114
36.2622	118
36.2696	100
36.2770	114
36.2844	111
36.2918	131
36.2992	128
36.3066	124
36.3140	126
36.3214	104
36.3288	127
36.3362	125
36.3436	135
36.3510	137
36.3584	125
36.3658	139
36.3732	115
36.3806	125
36.3880	138
36.3954	174
36.4027	137
36.4101	158
36.4175	146
36.4249	170
36.4323	156
36.4397	171
36.4471	185
36.4545	174
36.4619	153
36.4693	152
36.4767	145
36.4841	134
36.4915	150
36.4989	143
36.5063	169
36.5137	146
36.5211	145
36.5285	147
36.5359	145
36.5433	166
36.5507	152
36.5580	140
36.5654	136
36.5728	143
36.5802	137
36.5876	138
36.5950	124
36.6024	156
36.6098	139
36.6172	126
36.6246	142
36.6320	134
36.6394	124
36.6468	157
36.6542	139
36.6616	169
36.6690	132
36.6764	153
36.6838	126
36.6912	131
36.6986	128
36.7060	111
36.7134	118
36.7207	102
36.7281	131
36.7355	131
36.7429	99
36.7503	130
36.7577	113
36.7651	113
36.7725	113
36.7799	117
36.7873	89
36.7947	110
36.8021	101
36.8095	103
36.8169	92
36.8243	104
36.8317	104
36.8391	96
36.8465	81
36.8539	104
36.8613	100
36.8687	76
36.8760	101
36.8834	93
36.8908	102
36.8982	107
36.9056	95
36.9130	100
36.9204	104
36.9278	91
36.9352	98
36.9426	83
36.9500	97
36.9574	88
36.9648	88
36.9722	78
36.9796	97
36.9870	83
36.9944	88
37.0018	87
37.0092	95
37.0166	88
37.0240	91
37.0313	97
37.0387	79
37.0461	86
37.0535	94
37.0609	77
37.0683	102
37.0757	90
37.0831	80
37.0905	80
37.0979	90
37.1053	78
37.1127	88
37.1201	90
37.1275	77
37.1349	93
37.1423	94
37.1497	96
37.1571	76
37.1645	86
37.1719	77
37.1793	99
37.1866	80
37.1940	101
37.2014	95
37.2088	124
37.2162	106
37.2236	101
37.2310	108
37.2384	92
37.2458	84
37.2532	104
37.2606	92
37.2680	83
37.2754	87
37.2828	117
37.2902	94
37.2976	108
37.3050	98
37.3124	109
37.3198	107
37.3272	104
37.3346	102
37.3419	100
37.3493	109
37.3567	100
37.3641	95
37.3715	95
37.3789	93
37.3863	110
37.3937	87
37.4011	95
37.4085	95
37.4159	104
37.4233	99
37.4307	108
37.4381	89
37.4455	98
37.4529	101
37.4603	99
37.4677	95
37.4751	90
37.4825	111
37.4899	104
37.4972	91
37.5046	70
37.5120	104
37.5194	102
37.5268	79
37.5342	93
37.5416	88
37.5490	98
37.5564	84
37.5638	99
37.5712	85
37.5786	84
37.5860	81
37.5934	101
37.6008	90
37.6082	90
37.6156	85
37.6230	105
37.6304	74
37.6378	86
37.6452	82
37.6525	95
37.6599	98
37.6673	96
37.6747	85
37.6821	96
37.6895	94
37.6969	96
37.7043	88
37.7117	75
37.7191	102
37.7265	95
37.7339	113
37.7413	103
37.7487	89
37.7561	104
37.7635	95
37.7709	113
37.7783	124
37.7857	106
37.7931	84
37.8005	129
37.8078	108
37.8152	98
37.8226	113
37.8300	113
37.8374	113
37.8448	109
37.8522	138
37.8596	120
37.8670	115
37.8744	116
37.8818	96
37.8892	114
37.8966	128
37.9040	129
37.9114	105
37.9188	112
37.9262	127
37.9336	128
37.9410	125
37.9484	131
37.9558	145
37.9631	118
37.9705	135
37.9779	130
37.9853	138
37.9927	136
38.0001	115
38.0075	151
38.0149	162
38.0223	156
38.0297	151
38.0371	122
38.0445	143
38.0519	128
38.0593	157
38.0667	124
38.0741	137
38.0815	149
38.0889	142
38.0963	129
38.1037	143
38.1111	126
38.1184	147
38.1258	118
38.1332	131
38.1406	134
38.1480	140
38.1554	123
38.1628	113
38.1702	110
38.1776	108
38.1850	116
38.1924	123
38.1998	123
38.2072	109
38.2146	139
38.2220	145
38.2294	125
38.2368	144
38.2442	131
38.2516	127
38.2590	135
38.2664	136
38.2738	141
38.2811	149
38.2885	144
38.2959	167
38.3033	141
38.3107	182
38.3181	170
38.3255	172
38.3329	173
38.3403	172
38.3477	178
38.3551	157
38.3625	173
38.3699	150
38.3773	157
38.3847	165
38.3921	168
38.3995	159
38.4069	169
38.4143	164
38.4217	149
38.4291	183
38.4364	162
38.4438	160
38.4512	143
38.4586	153
38.4660	148
38.4734	165
38.4808	151
38.4882	159
38.4956	156
38.5030	151
38.5104	171
38.5178	160
38.5252	178
38.5326	179
38.5400	194
38.5474	193
38.5548	201
38.5622	181
38.5696	192
38.5770	176
38.5844	186
38.5917	176
38.5991	158
38.6065	176
38.6139	152
38.6213	155
38.6287	177
38.6361	172
38.6435	165
38.6509	166
38.6583	173
38.6657	161
38.6731	145
38.6805	132
38.6879	116
38.6953	125
38.7027	136
38.7101	108
38.7175	134
38.7249	117
38.7323	99
38.7397	115
38.7470	105
38.7544	113
38.7618	108
38.7692	104
38.7766	106
38.7840	100
38.7914	87
38.7988	106
38.8062	83
38.8136	95
38.8210	107
38.8284	88
38.8358	102
38.8432	89
38.8506	105
38.8580	101
38.8654	93
38.8728	100
38.8802	100
38.8876	107
38.8950	84
38.9023	93
38.9097	93
38.9171	107
38.9245	98
38.9319	108
38.9393	85
38.9467	71
38.9541	95
38.9615	88
38.9689	113
38.9763	92
38.9837	104
38.9911	94
38.9985	81
39.0059	99
39.0133	101
39.0207	102
39.0281	101
39.0355	124
39.0429	99
39.0503	117
39.0576	101
39.0650	102
39.0724	121
39.0798	86
39.0872	109
39.0946	137
39.1020	105
39.1094	102
39.1168	110
39.1242	93
39.1316	93
39.1390	105
39.1464	104
39.1538	108
39.1612	103
39.1686	125
39.1760	111
39.1834	127
39.1908	105
39.1982	140
39.2056	103
39.2129	124
39.2203	143
39.2277	104
39.2351	138
39.2425	136
39.2499	169
39.2573	154
39.2647	167
39.2721	157
39.2795	161
39.2869	189
39.2943	180
39.3017	176
39.3091	166
39.3165	165
39.3239	206
39.3313	168
39.3387	156
39.3461	143
39.3535	149
39.3609	142
39.3682	153
39.3756	146
39.3830	164
39.3904	153
39.3978	148
39.4052	136
39.4126	150
39.4200	148
39.4274	131
39.4348	119
39.4422	117
39.4496	125
39.4570	119
39.4644	118
39.4718	110
39.4792	137
39.4866	107
39.4940	118
39.5014	118
39.5088	109
39.5162	118
39.5235	107
39.5309	119
39.5383	97
39.5457	107
39.5531	112
39.5605	128
39.5679	98
39.5753	110
39.5827	95
39.5901	97
39.5975	104
39.6049	109
39.6123	94
39.6197	107
39.6271	93
39.6345	92
39.6419	99
39.6493	95
39.6567	112
39.6641	93
39.6715	109
39.6788	109
39.6862	78
39.6936	114
39.7010	84
39.7084	86
39.7158	90
39.7232	96
39.7306	83
39.7380	105
39.7454	98
39.7528	82
39.7602	81
39.7676	92
39.7750	102
39.7824	98
39.7898	103
39.7972	117
39.8046	86
39.8120	111
39.8194	126
39.8268	83
39.8342	101
39.8415	95
39.8489	125
39.8563	108
39.8637	124
39.8711	122
39.8785	104
39.8859	95
39.8933	97
39.9007	118
39.9081	106
39.9155	114
39.9229	103
39.9303	91
39.9377	95
39.9451	111
39.9525	113
39.9599	105
39.9673	131
39.9747	110
39.9821	114
39.9895	119
39.9968	140
