2.0000	198
2.0074	192
2.0148	203
2.0222	158
2.0296	212
2.0370	207
2.0444	175
2.0518	191
2.0592	198
2.0666	218
2.0740	206
2.0813	197
2.0887	180
2.0961	222
2.1035	188
2.1109	197
2.1183	184
2.1257	180
2.1331	186
2.1405	197
2.1479	195
2.1553	196
2.1627	225
2.1701	186
2.1775	232
2.1849	191
2.1923	244
2.1997	188
2.2071	179
2.2145	189
2.2219	203
2.2293	190
2.2366	201
2.2440	197
2.2514	213
2.2588	189
2.2662	199
2.2736	215
2.2810	177
2.2884	199
2.2958	203
2.3032	177
2.3106	215
2.3180	194
2.3254	183
2.3328	187
2.3402	197
2.3476	208
2.3550	185
2.3624	191
2.3698	199
2.3772	221
2.3846	190
2.3919	176
2.3993	198
2.4067	198
2.4141	167
2.4215	189
2.4289	193
2.4363	187
2.4437	183
2.4511	192
2.4585	183
2.4659	186
2.4733	197
2.4807	212
2.4881	206
2.4955	204
2.5029	185
2.5103	206
2.5177	206
2.5251	213
2.5325	189
2.5399	195
2.5472	204
2.5546	189
2.5620	177
2.5694	183
2.5768	185
2.5842	196
2.5916	181
2.5990	184
2.6064	182
2.6138	193
2.6212	192
2.6286	185
2.6360	218
2.6434	189
2.6508	180
2.6582	181
2.6656	195
2.6730	185
2.6804	184
2.6878	192
2.6952	178
2.7025	200
2.7099	205
2.7173	179
2.7247	175
2.7321	183
2.7395	198
2.7469	198
2.7543	181
2.7617	168
2.7691	178
2.7765	197
2.7839	184
2.7913	196
2.7987	165
2.8061	163
2.8135	165
2.8209	193
2.8283	189
2.8357	156
2.8431	173
2.8505	186
2.8579	176
2.8652	187
2.8726	190
2.8800	169
2.8874	176
2.8948	174
2.9022	192
2.9096	196
2.9170	181
2.9244	184
2.9318	193
2.9392	150
2.9466	178
2.9540	174
2.9614	177
2.9688	165
2.9762	182
2.9836	149
2.9910	146
2.9984	176
3.0058	180
3.0132	168
3.0205	194
3.0279	179
3.0353	188
3.0427	167
3.0501	167
3.0575	185
3.0649	159
3.0723	178
3.0797	174
3.0871	170
3.0945	187
3.1019	192
3.1093	174
3.1167	189
3.1241	171
3.1315	157
3.1389	173
3.1463	194
3.1537	140
3.1611	186
3.1685	183
3.1758	183
3.1832	158
3.1906	185
3.1980	171
3.2054	172
3.2128	167
3.2202	155
3.2276	173
3.2350	170
3.2424	169
3.2498	180
3.2572	175
3.2646	172
3.2720	159
3.2794	173
3.2868	176
3.2942	190
3.3016	154
3.3090	149
3.3164	156
3.3238	164
3.3311	176
3.3385	165
3.3459	164
3.3533	150
3.3607	184
3.3681	173
3.3755	164
3.3829	151
3.3903	183
3.3977	187
3.4051	175
3.4125	175
3.4199	158
3.4273	169
3.4347	161
3.4421	178
3.4495	176
3.4569	166
3.4643	170
3.4717	171
3.4791	172
3.4864	178
3.4938	194
3.5012	142
3.5086	179
3.5160	167
3.5234	172
3.5308	154
3.5382	172
3.5456	165
3.5530	149
3.5604	168
3.5678	177
3.5752	158
3.5826	153
3.5900	143
3.5974	171
3.6048	187
3.6122	174
3.6196	177
3.6270	162
3.6344	154
3.6417	172
3.6491	160
3.6565	164
3.6639	164
3.6713	157
3.6787	163
3.6861	157
3.6935	152
3.7009	178
3.7083	168
3.7157	126
3.7231	160
3.7305	163
3.7379	165
3.7453	162
3.7527	145
3.7601	177
3.7675	155
3.7749	155
3.7823	175
3.7897	158
3.7970	137
3.8044	157
3.8118	151
3.8192	146
3.8266	147
3.8340	143
3.8414	136
3.8488	137
3.8562	161
3.8636	163
3.8710	126
3.8784	152
3.8858	144
3.8932	171
3.9006	158
3.9080	159
3.9154	150
3.9228	136
3.9302	144
3.9376	158
3.9450	130
3.9523	142
3.9597	136
3.9671	157
3.9745	147
3.9819	126
3.9893	134
3.9967	154
4.0041	147
4.0115	147
4.0189	152
4.0263	117
4.0337	149
4.0411	159
4.0485	137
4.0559	123
4.0633	129
4.0707	150
4.0781	124
4.0855	156
4.0929	153
4.1003	138
4.1076	127
4.1150	150
4.1224	147
4.1298	149
4.1372	167
4.1446	127
4.1520	147
4.1594	156
4.1668	114
4.1742	139
4.1816	156
4.1890	119
4.1964	159
4.2038	137
4.2112	135
4.2186	134
4.2260	146
4.2334	151
4.2408	137
4.2482	129
4.2556	122
4.2629	136
4.2703	122
4.2777	132
4.2851	127
4.2925	120
4.2999	129
4.3073	123
4.3147	135
4.3221	155
4.3295	128
4.3369	127
4.3443	137
4.3517	132
4.3591	138
4.3665	112
4.3739	115
4.3813	142
4.3887	112
4.3961	117
4.4035	110
4.4109	124
4.4183	131
4.4256	115
4.4330	115
4.4404	118
4.4478	125
4.4552	130
4.4626	109
4.4700	129
4.4774	112
4.4848	142
4.4922	114
4.4996	126
4.5070	128
4.5144	133
4.5218	108
4.5292	131
4.5366	119
4.5440	120
4.5514	116
4.5588	106
4.5662	117
4.5736	129
4.5809	96
4.5883	115
4.5957	119
4.6031	114
4.6105	126
4.6179	126
4.6253	114
4.6327	112
4.6401	123
4.6475	117
4.6549	128
4.6623	136
4.6697	128
4.6771	114
4.6845	135
4.6919	104
4.6993	123
4.7067	113
4.7141	117
4.7215	120
4.7289	121
4.7362	109
4.7436	120
4.7510	114
4.7584	110
4.7658	128
4.7732	120
4.7806	121
4.7880	118
4.7954	111
4.8028	116
4.8102	118
4.8176	122
4.8250	128
4.8324	95
4.8398	114
4.8472	135
4.8546	116
4.8620	132
4.8694	109
4.8768	116
4.8842	127
4.8915	116
4.8989	114
4.9063	125
4.9137	132
4.9211	118
4.9285	105
4.9359	109
4.9433	89
4.9507	120
4.9581	110
4.9655	132
4.9729	116
4.9803	110
4.9877	103
4.9951	132
5.0025	129
5.0099	115
5.0173	121
5.0247	114
5.0321	113
5.0395	103
5.0468	128
5.0542	123
5.0616	109
5.0690	113
5.0764	108
5.0838	109
5.0912	119
5.0986	115
5.1060	106
5.1134	107
5.1208	104
5.1282	103
5.1356	120
5.1430	101
5.1504	113
5.1578	112
5.1652	118
5.1726	112
5.1800	93
5.1874	107
5.1948	97
5.2021	100
5.2095	113
5.2169	119
5.2243	101
5.2317	118
5.2391	87
5.2465	120
5.2539	123
5.2613	119
5.2687	128
5.2761	123
5.2835	128
5.2909	118
5.2983	135
5.3057	115
5.3131	104
5.3205	103
5.3279	128
5.3353	99
5.3427	117
5.3501	126
5.3574	107
5.3648	103
5.3722	113
5.3796	116
5.3870	121
5.3944	135
5.4018	127
5.4092	121
5.4166	120
5.4240	148
5.4314	122
5.4388	130
5.4462	140
5.4536	120
5.4610	153
5.4684	132
5.4758	148
5.4832	153
5.4906	128
5.4980	136
5.5054	137
5.5127	147
5.5201	121
5.5275	146
5.5349	131
5.5423	138
5.5497	141
5.5571	146
5.5645	141
5.5719	131
5.5793	160
5.5867	152
5.5941	155
5.6015	160
5.6089	156
5.6163	175
5.6237	151
5.6311	171
5.6385	173
5.6459	177
5.6533	186
5.6607	193
5.6680	199
5.6754	216
5.6828	213
5.6902	217
5.6976	216
5.7050	250
5.7124	277
5.7198	279
5.7272	291
5.7346	283
5.7420	319
5.7494	323
5.7568	362
5.7642	340
5.7716	369
5.7790	380
5.7864	436
5.7938	463
5.8012	491
5.8086	505
5.8160	548
5.8233	581
5.8307	629
5.8381	667
5.8455	711
5.8529	825
5.8603	831
5.8677	892
5.8751	991
5.8825	1045
5.8899	1063
5.8973	1182
5.9047	1288
5.9121	1430
5.9195	1604
5.9269	1739
5.9343	1943
5.9417	2118
5.9491	2375
5.9565	2589
5.9639	2999
5.9713	3258
5.9786	3802
5.9860	4327
5.9934	4923
6.0008	5914
6.0082	6676
6.0156	7670
6.0230	8222
6.0304	8469
6.0378	8177
6.0452	7535
6.0526	6710
6.0600	5642
6.0674	4604
6.0748	3804
6.0822	2926
6.0896	2141
6.0970	1706
6.1044	1330
6.1118	1065
6.1192	876
6.1266	633
6.1340	639
6.1413	528
6.1487	463
6.1561	402
6.1635	424
6.1709	402
6.1783	340
6.1857	318
6.1931	320
6.2005	297
6.2079	296
6.2153	289
6.2227	268
6.2301	268
6.2375	281
6.2449	271
6.2523	255
6.2597	247
6.2671	245
6.2745	204
6.2819	219
6.2893	231
6.2966	225
6.3040	210
6.3114	225
6.3188	219
6.3262	194
6.3336	198
6.3410	168
6.3484	191
6.3558	197
6.3632	196
6.3706	193
6.3780	205
6.3854	177
6.3928	179
6.4002	203
6.4076	187
6.4150	163
6.4224	173
6.4298	167
6.4372	183
6.4446	149
6.4519	169
6.4593	174
6.4667	170
6.4741	160
6.4815	137
6.4889	184
6.4963	162
6.5037	175
6.5111	187
6.5185	145
6.5259	172
6.5333	173
6.5407	161
6.5481	157
6.5555	157
6.5629	195
6.5703	150
6.5777	177
6.5851	168
6.5925	154
6.5999	158
6.6072	153
6.6146	164
6.6220	142
6.6294	132
6.6368	152
6.6442	161
6.6516	155
6.6590	127
6.6664	155
6.6738	123
6.6812	114
6.6886	125
6.6960	148
6.7034	145
6.7108	155
6.7182	157
6.7256	139
6.7330	120
6.7404	138
6.7478	156
6.7552	158
6.7625	143
6.7699	153
6.7773	126
6.7847	121
6.7921	128
6.7995	121
6.8069	129
6.8143	137
6.8217	135
6.8291	138
6.8365	117
6.8439	143
6.8513	121
6.8587	118
6.8661	127
6.8735	136
6.8809	102
6.8883	134
6.8957	131
6.9031	124
6.9105	137
6.9178	142
6.9252	120
6.9326	122
6.9400	134
6.9474	121
6.9548	140
6.9622	137
6.9696	123
6.9770	140
6.9844	125
6.9918	115
6.9992	123
7.0066	112
7.0140	113
7.0214	103
7.0288	109
7.0362	114
7.0436	113
7.0510	113
7.0584	119
7.0658	107
7.0731	118
7.0805	114
7.0879	102
7.0953	101
7.1027	101
7.1101	137
7.1175	114
7.1249	119
7.1323	99
7.1397	122
7.1471	108
7.1545	123
7.1619	101
7.1693	112
7.1767	95
7.1841	129
7.1915	115
7.1989	111
7.2063	120
7.2137	113
7.2211	117
7.2284	109
7.2358	101
7.2432	108
7.2506	101
7.2580	118
7.2654	103
7.2728	99
7.2802	104
7.2876	108
7.2950	94
7.3024	112
7.3098	102
7.3172	104
7.3246	108
7.3320	100
7.3394	124
7.3468	107
7.3542	108
7.3616	109
7.3690	111
7.3764	107
7.3837	134
7.3911	108
7.3985	78
7.4059	95
7.4133	107
7.4207	98
7.4281	88
7.4355	110
7.4429	98
7.4503	107
7.4577	105
7.4651	98
7.4725	101
7.4799	104
7.4873	98
7.4947	96
7.5021	118
7.5095	107
7.5169	99
7.5243	91
7.5317	90
7.5390	101
7.5464	111
7.5538	104
7.5612	108
7.5686	85
7.5760	114
7.5834	108
7.5908	96
7.5982	97
7.6056	95
7.6130	91
7.6204	109
7.6278	89
7.6352	93
7.6426	96
7.6500	79
7.6574	88
7.6648	86
7.6722	94
7.6796	112
7.6870	121
7.6944	115
7.7017	83
7.7091	89
7.7165	79
7.7239	79
7.7313	102
7.7387	95
7.7461	87
7.7535	100
7.7609	92
7.7683	87
7.7757	103
7.7831	85
7.7905	81
7.7979	99
7.8053	81
7.8127	97
7.8201	71
7.8275	91
7.8349	92
7.8423	97
7.8497	80
7.8570	87
7.8644	91
7.8718	73
7.8792	127
7.8866	79
7.8940	79
7.9014	83
7.9088	85
7.9162	99
7.9236	79
7.9310	105
7.9384	126
7.9458	95
7.9532	92
7.9606	87
7.9680	85
7.9754	90
7.9828	72
7.9902	77
7.9976	90
8.0050	100
8.0123	85
8.0197	90
8.0271	67
8.0345	106
8.0419	85
8.0493	109
8.0567	92
8.0641	82
8.0715	89
8.0789	82
8.0863	78
8.0937	85
8.1011	70
8.1085	100
8.1159	93
8.1233	66
8.1307	88
8.1381	84
8.1455	108
8.1529	78
8.1603	107
8.1676	76
8.1750	86
8.1824	89
8.1898	91
8.1972	82
8.2046	92
8.2120	87
8.2194	77
8.2268	75
8.2342	98
8.2416	104
8.2490	98
8.2564	82
8.2638	89
8.2712	66
8.2786	90
8.2860	74
8.2934	83
8.3008	65
8.3082	94
8.3156	82
8.3229	86
8.3303	83
8.3377	77
8.3451	84
8.3525	84
8.3599	86
8.3673	88
8.3747	84
8.3821	103
8.3895	81
8.3969	95
8.4043	85
8.4117	83
8.4191	91
8.4265	80
8.4339	84
8.4413	81
8.4487	97
8.4561	85
8.4635	79
8.4709	81
8.4782	85
8.4856	80
8.4930	84
8.5004	98
8.5078	70
8.5152	82
8.5226	87
8.5300	68
8.5374	82
8.5448	84
8.5522	78
8.5596	95
8.5670	76
8.5744	88
8.5818	56
8.5892	87
8.5966	81
8.6040	71
8.6114	82
8.6188	90
8.6262	81
8.6335	92
8.6409	85
8.6483	72
8.6557	89
8.6631	79
8.6705	91
8.6779	90
8.6853	78
8.6927	80
8.7001	77
8.7075	95
8.7149	84
8.7223	89
8.7297	79
8.7371	68
8.7445	80
8.7519	67
8.7593	84
8.7667	76
8.7741	88
8.7815	83
8.7888	80
8.7962	87
8.8036	88
8.8110	87
8.8184	70
8.8258	71
8.8332	69
8.8406	77
8.8480	79
8.8554	99
8.8628	79
8.8702	86
8.8776	88
8.8850	82
8.8924	96
8.8998	89
8.9072	87
8.9146	83
8.9220	84
8.9294	91
8.9368	80
8.9441	77
8.9515	81
8.9589	80
8.9663	75
8.9737	72
8.9811	74
8.9885	78
8.9959	93
9.0033	78
9.0107	71
9.0181	78
9.0255	79
9.0329	78
9.0403	85
9.0477	77
9.0551	82
9.0625	97
9.0699	72
9.0773	83
9.0847	85
9.0921	91
9.0994	74
9.1068	78
9.1142	77
9.1216	80
9.1290	81
9.1364	84
9.1438	90
9.1512	83
9.1586	79
9.1660	75
9.1734	92
9.1808	77
9.1882	84
9.1956	76
9.2030	73
9.2104	65
9.2178	87
9.2252	84
9.2326	81
9.2400	88
9.2474	65
9.2548	93
9.2621	74
9.2695	76
9.2769	91
9.2843	84
9.2917	92
9.2991	79
9.3065	63
9.3139	69
9.3213	78
9.3287	90
9.3361	85
9.3435	89
9.3509	95
9.3583	76
9.3657	75
9.3731	84
9.3805	73
9.3879	80
9.3953	94
9.4027	79
9.4101	84
9.4174	66
9.4248	80
9.4322	81
9.4396	71
9.4470	80
9.4544	83
9.4618	70
9.4692	81
9.4766	66
9.4840	92
9.4914	75
9.4988	80
9.5062	89
9.5136	93
9.5210	98
9.5284	68
9.5358	87
9.5432	74
9.5506	90
9.5580	83
9.5654	82
9.5727	75
9.5801	78
9.5875	82
9.5949	82
9.6023	79
9.6097	75
9.6171	76
9.6245	88
9.6319	91
9.6393	84
9.6467	82
9.6541	78
9.6615	71
9.6689	74
9.6763	84
9.6837	81
9.6911	68
9.6985	68
9.7059	77
9.7133	69
9.7207	82
9.7280	84
9.7354	91
9.7428	79
9.7502	82
9.7576	88
9.7650	92
9.7724	71
9.7798	101
9.7872	87
9.7946	82
9.8020	75
9.8094	72
9.8168	64
9.8242	73
9.8316	82
9.8390	93
9.8464	86
9.8538	75
9.8612	95
9.8686	68
9.8760	80
9.8833	79
9.8907	72
9.8981	106
9.9055	64
9.9129	73
9.9203	94
9.9277	86
9.9351	79
9.9425	75
9.9499	65
9.9573	72
9.9647	89
9.9721	93
9.9795	102
9.9869	69
9.9943	88
10.0017	85
10.0091	94
10.0165	79
10.0239	73
10.0313	86
10.0386	66
10.0460	77
10.0534	89
10.0608	93
10.0682	93
10.0756	74
10.0830	76
10.0904	78
10.0978	77
10.1052	86
10.1126	84
10.1200	91
10.1274	76
10.1348	70
10.1422	99
10.1496	76
10.1570	84
10.1644	80
10.1718	76
10.1792	72
10.1866	82
10.1939	89
10.2013	89
10.2087	84
10.2161	94
10.2235	85
10.2309	76
10.2383	64
10.2457	79
10.2531	87
10.2605	76
10.2679	82
10.2753	79
10.2827	79
10.2901	89
10.2975	89
10.3049	78
10.3123	84
10.3197	75
10.3271	79
10.3345	76
10.3419	67
10.3492	100
10.3566	84
10.3640	65
10.3714	101
10.3788	77
10.3862	76
10.3936	71
10.4010	72
10.4084	74
10.4158	81
10.4232	99
10.4306	72
10.4380	80
10.4454	82
10.4528	79
10.4602	80
10.4676	85
10.4750	92
10.4824	81
10.4898	75
10.4972	95
10.5045	78
10.5119	89
10.5193	75
10.5267	74
10.5341	79
10.5415	90
10.5489	95
10.5563	81
10.5637	82
10.5711	87
10.5785	79
10.5859	68
10.5933	82
10.6007	88
10.6081	75
10.6155	83
10.6229	80
10.6303	77
10.6377	93
10.6451	79
10.6525	71
10.6598	93
10.6672	88
10.6746	78
10.6820	72
10.6894	99
10.6968	84
10.7042	92
10.7116	68
10.7190	90
10.7264	85
10.7338	77
10.7412	76
10.7486	98
10.7560	90
10.7634	67
10.7708	76
10.7782	87
10.7856	90
10.7930	92
10.8004	86
10.8078	81
10.8151	78
10.8225	83
10.8299	92
10.8373	89
10.8447	83
10.8521	79
10.8595	90
10.8669	90
10.8743	68
10.8817	91
10.8891	73
10.8965	78
10.9039	86
10.9113	85
10.9187	70
10.9261	74
10.9335	79
10.9409	79
10.9483	91
10.9557	90
10.9631	79
10.9705	95
10.9778	79
10.9852	83
10.9926	94
11.0000	96
11.0074	72
11.0148	98
11.0222	84
11.0296	83
11.0370	81
11.0444	80
11.0518	97
11.0592	78
11.0666	79
11.0740	105
11.0814	87
11.0888	78
11.0962	85
11.1036	91
11.1110	81
11.1184	92
11.1258	65
11.1331	90
11.1405	97
11.1479	88
11.1553	82
11.1627	86
11.1701	71
11.1775	89
11.1849	91
11.1923	75
11.1997	89
11.2071	83
11.2145	94
11.2219	110
11.2293	97
11.2367	93
11.2441	93
11.2515	79
11.2589	81
11.2663	90
11.2737	99
11.2811	81
11.2884	85
11.2958	77
11.3032	85
11.3106	95
11.3180	87
11.3254	74
11.3328	72
11.3402	83
11.3476	112
11.3550	66
11.3624	75
11.3698	70
11.3772	85
11.3846	82
11.3920	75
11.3994	79
11.4068	92
11.4142	84
11.4216	79
11.4290	83
11.4364	91
11.4437	93
11.4511	92
11.4585	94
11.4659	89
11.4733	79
11.4807	85
11.4881	87
11.4955	84
11.5029	89
11.5103	82
11.5177	89
11.5251	89
11.5325	78
11.5399	94
11.5473	77
11.5547	77
11.5621	80
11.5695	112
11.5769	74
11.5843	91
11.5917	96
11.5990	87
11.6064	86
11.6138	98
11.6212	94
11.6286	89
11.6360	82
11.6434	110
11.6508	105
11.6582	101
11.6656	89
11.6730	109
11.6804	109
11.6878	91
11.6952	103
11.7026	92
11.7100	86
11.7174	83
11.7248	96
11.7322	109
11.7396	82
11.7470	87
11.7543	112
11.7617	113
11.7691	107
11.7765	104
11.7839	91
11.7913	111
11.7987	112
11.8061	99
11.8135	109
11.8209	111
11.8283	101
11.8357	103
11.8431	119
11.8505	124
11.8579	122
11.8653	142
11.8727	123
11.8801	131
11.8875	132
11.8949	134
11.9023	141
11.9096	157
11.9170	172
11.9244	143
11.9318	155
11.9392	150
11.9466	184
11.9540	213
11.9614	216
11.9688	235
11.9762	261
11.9836	287
11.9910	309
11.9984	348
12.0058	341
12.0132	355
12.0206	351
12.0280	372
12.0354	350
12.0428	374
12.0502	306
12.0576	280
12.0649	272
12.0723	245
12.0797	199
12.0871	211
12.0945	193
12.1019	188
12.1093	197
12.1167	230
12.1241	206
12.1315	231
12.1389	212
12.1463	252
12.1537	259
12.1611	290
12.1685	312
12.1759	320
12.1833	394
12.1907	416
12.1981	470
12.2055	523
12.2129	587
12.2202	659
12.2276	841
12.2350	987
12.2424	1066
12.2498	1286
12.2572	1420
12.2646	1675
12.2720	1758
12.2794	1751
12.2868	1739
12.2942	1521
12.3016	1471
12.3090	1354
12.3164	1091
12.3238	1030
12.3312	797
12.3386	675
12.3460	610
12.3534	503
12.3608	420
12.3682	395
12.3755	350
12.3829	353
12.3903	378
12.3977	379
12.4051	370
12.4125	453
12.4199	463
12.4273	531
12.4347	541
12.4421	620
12.4495	637
12.4569	739
12.4643	751
12.4717	741
12.4791	777
12.4865	718
12.4939	641
12.5013	588
12.5087	494
12.5161	454
12.5235	411
12.5309	356
12.5382	281
12.5456	261
12.5530	228
12.5604	196
12.5678	184
12.5752	168
12.5826	162
12.5900	153
12.5974	128
12.6048	144
12.6122	142
12.6196	146
12.6270	120
12.6344	133
12.6418	121
12.6492	139
12.6566	108
12.6640	112
12.6714	121
12.6788	123
12.6862	139
12.6935	132
12.7009	121
12.7083	119
12.7157	105
12.7231	117
12.7305	113
12.7379	126
12.7453	114
12.7527	100
12.7601	110
12.7675	130
12.7749	123
12.7823	106
12.7897	98
12.7971	111
12.8045	93
12.8119	117
12.8193	98
12.8267	121
12.8341	111
12.8415	122
12.8488	101
12.8562	113
12.8636	111
12.8710	105
12.8784	88
12.8858	87
12.8932	86
12.9006	96
12.9080	107
12.9154	88
12.9228	116
12.9302	112
12.9376	124
12.9450	100
12.9524	103
12.9598	131
12.9672	96
12.9746	110
12.9820	100
12.9894	112
12.9968	95
13.0041	126
13.0115	129
13.0189	98
13.0263	110
13.0337	94
13.0411	107
13.0485	101
13.0559	111
13.0633	95
13.0707	97
13.0781	99
13.0855	103
13.0929	126
13.1003	90
13.1077	106
13.1151	87
13.1225	108
13.1299	105
13.1373	102
13.1447	111
13.1521	100
13.1594	97
13.1668	105
13.1742	120
13.1816	107
13.1890	100
13.1964	94
13.2038	98
13.2112	96
13.2186	77
13.2260	87
13.2334	96
13.2408	105
13.2482	105
13.2556	93
13.2630	98
13.2704	97
13.2778	111
13.2852	95
13.2926	99
13.3000	107
13.3074	89
13.3147	102
13.3221	104
13.3295	93
13.3369	109
13.3443	98
13.3517	114
13.3591	118
13.3665	106
13.3739	101
13.3813	115
13.3887	106
13.3961	107
13.4035	89
13.4109	103
13.4183	86
13.4257	121
13.4331	85
13.4405	109
13.4479	101
13.4553	93
13.4627	104
13.4700	112
13.4774	86
13.4848	108
13.4922	83
13.4996	109
13.5070	85
13.5144	103
13.5218	81
13.5292	105
13.5366	88
13.5440	87
13.5514	114
13.5588	93
13.5662	99
13.5736	95
13.5810	92
13.5884	96
13.5958	95
13.6032	105
13.6106	88
13.6180	109
13.6253	110
13.6327	75
13.6401	92
13.6475	113
13.6549	115
13.6623	99
13.6697	93
13.6771	107
13.6845	93
13.6919	94
13.6993	100
13.7067	89
13.7141	78
13.7215	97
13.7289	107
13.7363	107
13.7437	105
13.7511	107
13.7585	104
13.7659	98
13.7733	94
13.7806	113
13.7880	95
13.7954	100
13.8028	87
13.8102	96
13.8176	87
13.8250	99
13.8324	101
13.8398	101
13.8472	80
13.8546	87
13.8620	78
13.8694	96
13.8768	91
13.8842	110
13.8916	85
13.8990	110
13.9064	98
13.9138	88
13.9212	82
13.9286	84
13.9359	89
13.9433	88
13.9507	83
13.9581	92
13.9655	87
13.9729	85
13.9803	92
13.9877	95
13.9951	73
14.0025	91
14.0099	84
14.0173	100
14.0247	84
14.0321	94
14.0395	107
14.0469	90
14.0543	105
14.0617	99
14.0691	102
14.0765	97
14.0839	93
14.0913	118
14.0986	116
14.1060	95
14.1134	104
14.1208	99
14.1282	90
14.1356	108
14.1430	113
14.1504	110
14.1578	105
14.1652	108
14.1726	93
14.1800	99
14.1874	101
14.1948	106
14.2022	102
14.2096	105
14.2170	98
14.2244	106
14.2318	93
14.2392	102
14.2466	95
14.2539	92
14.2613	108
14.2687	99
14.2761	97
14.2835	112
14.2909	102
14.2983	109
14.3057	102
14.3131	91
14.3205	99
14.3279	119
14.3353	115
14.3427	99
14.3501	118
14.3575	104
14.3649	93
14.3723	99
14.3797	97
14.3871	105
14.3945	103
14.4019	107
14.4092	106
14.4166	94
14.4240	118
14.4314	86
14.4388	107
14.4462	116
14.4536	101
14.4610	115
14.4684	121
14.4758	111
14.4832	113
14.4906	117
14.4980	129
14.5054	114
14.5128	138
14.5202	124
14.5276	105
14.5350	131
14.5424	131
14.5498	138
14.5572	136
14.5645	130
14.5719	148
14.5793	142
14.5867	169
14.5941	160
14.6015	164
14.6089	169
14.6163	179
14.6237	181
14.6311	181
14.6385	204
14.6459	219
14.6533	247
14.6607	240
14.6681	286
14.6755	332
14.6829	339
14.6903	396
14.6977	423
14.7051	458
14.7125	563
14.7198	584
14.7272	660
14.7346	777
14.7420	851
14.7494	898
14.7568	955
14.7642	1006
14.7716	1043
14.7790	1051
14.7864	970
14.7938	972
14.8012	887
14.8086	861
14.8160	725
14.8234	699
14.8308	605
14.8382	534
14.8456	451
14.8530	395
14.8604	345
14.8678	298
14.8751	280
14.8825	265
14.8899	244
14.8973	233
14.9047	198
14.9121	190
14.9195	177
14.9269	189
14.9343	165
14.9417	187
14.9491	177
14.9565	159
14.9639	169
14.9713	184
14.9787	160
14.9861	159
14.9935	156
15.0009	156
15.0083	162
15.0157	150
15.0231	167
15.0304	147
15.0378	166
15.0452	181
15.0526	168
15.0600	182
15.0674	177
15.0748	178
15.0822	150
15.0896	183
15.0970	201
15.1044	198
15.1118	209
15.1192	184
15.1266	218
15.1340	253
15.1414	222
15.1488	290
15.1562	316
15.1636	347
15.1710	368
15.1784	400
15.1857	447
15.1931	551
15.2005	528
15.2079	619
15.2153	661
15.2227	799
15.2301	813
15.2375	835
15.2449	907
15.2523	929
15.2597	846
15.2671	879
15.2745	774
15.2819	671
15.2893	659
15.2967	549
15.3041	483
15.3115	427
15.3189	391
15.3263	310
15.3337	278
15.3410	229
15.3484	217
15.3558	205
15.3632	188
15.3706	172
15.3780	178
15.3854	119
15.3928	122
15.4002	154
15.4076	131
15.4150	134
15.4224	116
15.4298	155
15.4372	144
15.4446	109
15.4520	120
15.4594	118
15.4668	105
15.4742	130
15.4816	123
15.4890	112
15.4963	116
15.5037	113
15.5111	104
15.5185	115
15.5259	115
15.5333	89
15.5407	110
15.5481	121
15.5555	101
15.5629	114
15.5703	100
15.5777	104
15.5851	97
15.5925	89
15.5999	100
15.6073	96
15.6147	89
15.6221	95
15.6295	91
15.6369	115
15.6443	96
15.6516	82
15.6590	86
15.6664	97
15.6738	90
15.6812	95
15.6886	90
15.6960	84
15.7034	88
15.7108	94
15.7182	91
15.7256	93
15.7330	87
15.7404	93
15.7478	95
15.7552	86
15.7626	92
15.7700	105
15.7774	102
15.7848	77
15.7922	79
15.7996	78
15.8070	102
15.8143	73
15.8217	87
15.8291	100
15.8365	91
15.8439	78
15.8513	98
15.8587	77
15.8661	92
15.8735	95
15.8809	103
15.8883	81
15.8957	91
15.9031	91
15.9105	87
15.9179	92
15.9253	99
15.9327	89
15.9401	99
15.9475	82
15.9549	100
15.9623	88
15.9696	82
15.9770	83
15.9844	97
15.9918	92
15.9992	110
16.0066	95
16.0140	70
16.0214	72
16.0288	86
16.0362	85
16.0436	82
16.0510	95
16.0584	112
16.0658	90
16.0732	101
16.0806	78
16.0880	99
16.0954	67
16.1028	85
16.1102	81
16.1176	87
16.1249	93
16.1323	81
16.1397	95
16.1471	82
16.1545	85
16.1619	96
16.1693	69
16.1767	82
16.1841	98
16.1915	80
16.1989	85
16.2063	87
16.2137	85
16.2211	92
16.2285	73
16.2359	84
16.2433	89
16.2507	58
16.2581	91
16.2655	79
16.2729	79
16.2802	88
16.2876	71
16.2950	105
16.3024	68
16.3098	91
16.3172	68
16.3246	80
16.3320	70
16.3394	65
16.3468	60
16.3542	73
16.3616	83
16.3690	79
16.3764	90
16.3838	76
16.3912	83
16.3986	91
16.4060	80
16.4134	71
16.4208	83
16.4282	85
16.4355	89
16.4429	91
16.4503	69
16.4577	79
16.4651	62
16.4725	74
16.4799	85
16.4873	88
16.4947	88
16.5021	77
16.5095	64
16.5169	84
16.5243	87
16.5317	84
16.5391	68
16.5465	72
16.5539	96
16.5613	92
16.5687	89
16.5761	93
16.5835	98
16.5908	100
16.5982	94
16.6056	78
16.6130	72
16.6204	97
16.6278	94
16.6352	78
16.6426	104
16.6500	102
16.6574	95
16.6648	109
16.6722	97
16.6796	102
16.6870	117
16.6944	108
16.7018	126
16.7092	127
16.7166	115
16.7240	116
16.7314	108
16.7388	109
16.7461	105
16.7535	85
16.7609	100
16.7683	94
16.7757	86
16.7831	80
16.7905	100
16.7979	91
16.8053	109
16.8127	86
16.8201	88
16.8275	100
16.8349	87
16.8423	74
16.8497	90
16.8571	86
16.8645	92
16.8719	68
16.8793	74
16.8867	81
16.8941	84
16.9014	76
16.9088	93
16.9162	84
16.9236	83
16.9310	80
16.9384	86
16.9458	90
16.9532	86
16.9606	84
16.9680	78
16.9754	80
16.9828	93
16.9902	89
16.9976	97
17.0050	114
17.0124	95
17.0198	78
17.0272	86
17.0346	108
17.0420	69
17.0494	104
17.0567	114
17.0641	81
17.0715	121
17.0789	103
17.0863	86
17.0937	99
17.1011	91
17.1085	95
17.1159	86
17.1233	85
17.1307	93
17.1381	84
17.1455	114
17.1529	105
17.1603	86
17.1677	82
17.1751	98
17.1825	87
17.1899	94
17.1973	88
17.2047	91
17.2120	94
17.2194	112
17.2268	92
17.2342	96
17.2416	106
17.2490	96
17.2564	106
17.2638	102
17.2712	107
17.2786	105
17.2860	105
17.2934	102
17.3008	106
17.3082	83
17.3156	101
17.3230	77
17.3304	98
17.3378	103
17.3452	128
17.3526	106
17.3600	112
17.3674	132
17.3747	110
17.3821	132
17.3895	123
17.3969	110
17.4043	130
17.4117	104
17.4191	120
17.4265	128
17.4339	133
17.4413	163
17.4487	133
17.4561	146
17.4635	178
17.4709	173
17.4783	173
17.4857	208
17.4931	184
17.5005	179
17.5079	222
17.5153	234
17.5227	252
17.5300	263
17.5374	281
17.5448	317
17.5522	337
17.5596	449
17.5670	471
17.5744	509
17.5818	554
17.5892	635
17.5966	698
17.6040	668
17.6114	679
17.6188	709
17.6262	763
17.6336	675
17.6410	648
17.6484	652
17.6558	538
17.6632	514
17.6706	442
17.6780	411
17.6853	396
17.6927	352
17.7001	328
17.7075	275
17.7149	307
17.7223	283
17.7297	237
17.7371	285
17.7445	262
17.7519	293
17.7593	297
17.7667	307
17.7741	303
17.7815	303
17.7889	331
17.7963	329
17.8037	299
17.8111	273
17.8185	274
17.8259	265
17.8333	247
17.8406	245
17.8480	186
17.8554	215
17.8628	184
17.8702	154
17.8776	144
17.8850	143
17.8924	143
17.8998	140
17.9072	125
17.9146	112
17.9220	136
17.9294	140
17.9368	127
17.9442	99
17.9516	125
17.9590	135
17.9664	106
17.9738	123
17.9812	127
17.9886	117
17.9959	114
18.0033	135
18.0107	129
18.0181	150
18.0255	147
18.0329	154
18.0403	128
18.0477	137
18.0551	124
18.0625	138
18.0699	125
18.0773	120
18.0847	101
18.0921	127
18.0995	110
18.1069	106
18.1143	107
18.1217	118
18.1291	100
18.1365	114
18.1439	110
18.1512	98
18.1586	107
18.1660	104
18.1734	121
18.1808	87
18.1882	96
18.1956	92
18.2030	120
18.2104	115
18.2178	123
18.2252	108
18.2326	111
18.2400	109
18.2474	108
18.2548	111
18.2622	126
18.2696	135
18.2770	107
18.2844	109
18.2918	114
18.2992	108
18.3065	111
18.3139	136
18.3213	139
18.3287	123
18.3361	145
18.3435	149
18.3509	127
18.3583	160
18.3657	127
18.3731	147
18.3805	174
18.3879	146
18.3953	153
18.4027	179
18.4101	178
18.4175	152
18.4249	152
18.4323	150
18.4397	149
18.4471	145
18.4545	157
18.4618	147
18.4692	160
18.4766	166
18.4840	159
18.4914	122
18.4988	138
18.5062	145
18.5136	128
18.5210	119
18.5284	147
18.5358	135
18.5432	128
18.5506	133
18.5580	122
18.5654	144
18.5728	144
18.5802	164
18.5876	152
18.5950	162
18.6024	165
18.6098	162
18.6171	153
18.6245	141
18.6319	151
18.6393	168
18.6467	164
18.6541	167
18.6615	173
18.6689	203
18.6763	179
18.6837	188
18.6911	221
18.6985	226
18.7059	224
18.7133	245
18.7207	256
18.7281	230
18.7355	290
18.7429	306
18.7503	299
18.7577	340
18.7651	357
18.7724	381
18.7798	452
18.7872	435
18.7946	478
18.8020	569
18.8094	581
18.8168	612
18.8242	720
18.8316	742
18.8390	794
18.8464	893
18.8538	995
18.8612	1053
18.8686	1155
18.8760	1351
18.8834	1463
18.8908	1629
18.8982	1910
18.9056	1881
18.9130	2087
18.9204	2201
18.9278	2296
18.9351	2195
18.9425	2169
18.9499	2066
18.9573	2031
18.9647	1977
18.9721	1777
18.9795	1573
18.9869	1387
18.9943	1203
19.0017	1092
19.0091	930
19.0165	822
19.0239	728
19.0313	616
19.0387	566
19.0461	517
19.0535	441
19.0609	421
19.0683	397
19.0757	375
19.0831	312
19.0904	315
19.0978	307
19.1052	291
19.1126	268
19.1200	234
19.1274	267
19.1348	240
19.1422	227
19.1496	235
19.1570	228
19.1644	225
19.1718	221
19.1792	213
19.1866	195
19.1940	208
19.2014	159
19.2088	208
19.2162	172
19.2236	151
19.2310	191
19.2384	168
19.2457	164
19.2531	170
19.2605	175
19.2679	168
19.2753	140
19.2827	161
19.2901	149
19.2975	162
19.3049	153
19.3123	141
19.3197	149
19.3271	154
19.3345	177
19.3419	157
19.3493	165
19.3567	157
19.3641	157
19.3715	166
19.3789	177
19.3863	180
19.3937	186
19.4010	158
19.4084	163
19.4158	201
19.4232	200
19.4306	205
19.4380	212
19.4454	231
19.4528	235
19.4602	249
19.4676	293
19.4750	272
19.4824	321
19.4898	341
19.4972	345
19.5046	419
19.5120	473
19.5194	514
19.5268	549
19.5342	577
19.5416	675
19.5490	712
19.5563	707
19.5637	654
19.5711	663
19.5785	634
19.5859	580
19.5933	576
19.6007	566
19.6081	461
19.6155	458
19.6229	402
19.6303	348
19.6377	289
19.6451	283
19.6525	261
19.6599	232
19.6673	182
19.6747	171
19.6821	185
19.6895	194
19.6969	167
19.7043	170
19.7116	174
19.7190	143
19.7264	138
19.7338	135
19.7412	128
19.7486	140
19.7560	126
19.7634	125
19.7708	114
19.7782	118
19.7856	118
19.7930	131
19.8004	111
19.8078	120
19.8152	98
19.8226	108
19.8300	118
19.8374	126
19.8448	122
19.8522	105
19.8596	108
19.8669	109
19.8743	113
19.8817	100
19.8891	102
19.8965	122
19.9039	119
19.9113	121
19.9187	127
19.9261	102
19.9335	114
19.9409	113
19.9483	99
19.9557	97
19.9631	111
19.9705	103
19.9779	111
19.9853	95
19.9927	91
20.0001	89
20.0075	97
20.0149	108
20.0222	108
20.0296	80
20.0370	108
20.0444	95
20.0518	109
20.0592	103
20.0666	104
20.0740	118
20.0814	126
20.0888	103
20.0962	122
20.1036	113
20.1110	121
20.1184	109
20.1258	128
20.1332	110
20.1406	119
20.1480	104
20.1554	124
20.1628	115
20.1702	118
20.1775	141
20.1849	125
20.1923	120
20.1997	143
20.2071	156
20.2145	172
20.2219	152
20.2293	168
20.2367	173
20.2441	213
20.2515	237
20.2589	245
20.2663	279
20.2737	280
20.2811	269
20.2885	284
20.2959	314
20.3033	307
20.3107	325
20.3181	289
20.3255	256
20.3328	313
20.3402	254
20.3476	216
20.3550	232
20.3624	230
20.3698	221
20.3772	204
20.3846	177
20.3920	182
20.3994	187
20.4068	159
20.4142	146
20.4216	160
20.4290	156
20.4364	149
20.4438	174
20.4512	172
20.4586	163
20.4660	160
20.4734	140
20.4808	159
20.4882	125
20.4955	155
20.5029	168
20.5103	143
20.5177	147
20.5251	164
20.5325	174
20.5399	150
20.5473	155
20.5547	156
20.5621	181
20.5695	167
20.5769	175
20.5843	192
20.5917	176
20.5991	172
20.6065	196
20.6139	190
20.6213	198
20.6287	207
20.6361	239
20.6435	210
20.6508	219
20.6582	232
20.6656	229
20.6730	283
20.6804	274
20.6878	288
20.6952	312
20.7026	330
20.7100	384
20.7174	381
20.7248	385
20.7322	471
20.7396	485
20.7470	508
20.7544	487
20.7618	525
20.7692	521
20.7766	507
20.7840	464
20.7914	478
20.7988	514
20.8061	509
20.8135	504
20.8209	538
20.8283	481
20.8357	512
20.8431	535
20.8505	501
20.8579	512
20.8653	562
20.8727	600
20.8801	594
20.8875	719
20.8949	696
20.9023	816
20.9097	866
20.9171	837
20.9245	983
20.9319	1211
20.9393	1332
20.9467	1379
20.9541	1495
20.9614	1647
20.9688	1702
20.9762	1825
20.9836	1814
20.9910	1742
20.9984	1785
21.0058	1778
21.0132	1610
21.0206	1560
21.0280	1473
21.0354	1397
21.0428	1172
21.0502	1092
21.0576	1059
21.0650	927
21.0724	843
21.0798	753
21.0872	620
21.0946	552
21.1020	537
21.1094	446
21.1167	413
21.1241	429
21.1315	374
21.1389	381
21.1463	357
21.1537	298
21.1611	320
21.1685	247
21.1759	273
21.1833	289
21.1907	244
21.1981	268
21.2055	238
21.2129	260
21.2203	241
21.2277	246
21.2351	215
21.2425	225
21.2499	226
21.2573	181
21.2647	178
21.2720	217
21.2794	179
21.2868	155
21.2942	167
21.3016	162
21.3090	171
21.3164	171
21.3238	163
21.3312	181
21.3386	154
21.3460	171
21.3534	153
21.3608	140
21.3682	170
21.3756	154
21.3830	139
21.3904	161
21.3978	167
21.4052	180
21.4126	141
21.4200	160
21.4273	174
21.4347	167
21.4421	174
21.4495	157
21.4569	183
21.4643	161
21.4717	176
21.4791	164
21.4865	193
21.4939	201
21.5013	224
21.5087	236
21.5161	201
21.5235	256
21.5309	267
21.5383	299
21.5457	316
21.5531	354
21.5605	383
21.5679	418
21.5753	409
21.5826	413
21.5900	419
21.5974	420
21.6048	427
21.6122	416
21.6196	349
21.6270	332
21.6344	281
21.6418	343
21.6492	263
21.6566	236
21.6640	209
21.6714	212
21.6788	157
21.6862	188
21.6936	164
21.7010	161
21.7084	156
21.7158	149
21.7232	141
21.7306	167
21.7379	158
21.7453	157
21.7527	163
21.7601	146
21.7675	162
21.7749	169
21.7823	164
21.7897	166
21.7971	174
21.8045	170
21.8119	185
21.8193	166
21.8267	146
21.8341	147
21.8415	148
21.8489	149
21.8563	126
21.8637	140
21.8711	117
21.8785	135
21.8859	109
21.8932	121
21.9006	110
21.9080	103
21.9154	102
21.9228	131
21.9302	121
21.9376	98
21.9450	100
21.9524	86
21.9598	127
21.9672	101
21.9746	93
21.9820	104
21.9894	89
21.9968	93
22.0042	95
22.0116	100
22.0190	86
22.0264	88
22.0338	87
22.0412	92
22.0485	84
22.0559	94
22.0633	76
22.0707	97
22.0781	101
22.0855	84
22.0929	96
22.1003	80
22.1077	83
22.1151	98
22.1225	79
22.1299	100
22.1373	110
22.1447	89
22.1521	88
22.1595	90
22.1669	80
22.1743	75
22.1817	83
22.1891	81
22.1965	88
22.2039	87
22.2112	87
22.2186	84
22.2260	96
22.2334	102
22.2408	90
22.2482	93
22.2556	107
22.2630	84
22.2704	86
22.2778	100
22.2852	102
22.2926	93
22.3000	72
22.3074	84
22.3148	80
22.3222	80
22.3296	96
22.3370	79
22.3444	97
22.3518	88
22.3592	82
22.3665	96
22.3739	88
22.3813	82
22.3887	90
22.3961	69
22.4035	93
22.4109	81
22.4183	70
22.4257	75
22.4331	101
22.4405	87
22.4479	89
22.4553	78
22.4627	90
22.4701	85
22.4775	77
22.4849	72
22.4923	79
22.4997	83
22.5071	101
22.5145	77
22.5218	83
22.5292	112
22.5366	77
22.5440	84
22.5514	98
22.5588	86
22.5662	93
22.5736	86
22.5810	82
22.5884	82
22.5958	83
22.6032	92
22.6106	87
22.6180	103
22.6254	88
22.6328	82
22.6402	81
22.6476	82
22.6550	85
22.6624	99
22.6698	89
22.6771	88
22.6845	83
22.6919	63
22.6993	78
22.7067	67
22.7141	84
22.7215	85
22.7289	87
22.7363	93
22.7437	93
22.7511	60
22.7585	75
22.7659	98
22.7733	89
22.7807	95
22.7881	85
22.7955	107
22.8029	85
22.8103	94
22.8177	91
22.8251	93
22.8324	98
22.8398	116
22.8472	118
22.8546	106
22.8620	120
22.8694	132
22.8768	116
22.8842	126
22.8916	111
22.8990	100
22.9064	126
22.9138	118
22.9212	104
22.9286	113
22.9360	107
22.9434	85
22.9508	92
22.9582	100
22.9656	94
22.9730	80
22.9804	80
22.9877	81
22.9951	77
23.0025	75
23.0099	70
23.0173	78
23.0247	82
23.0321	84
23.0395	97
23.0469	77
23.0543	73
23.0617	89
23.0691	82
23.0765	76
23.0839	83
23.0913	55
23.0987	81
23.1061	73
23.1135	87
23.1209	85
23.1283	76
23.1357	77
23.1430	94
23.1504	79
23.1578	98
23.1652	98
23.1726	85
23.1800	77
23.1874	72
23.1948	72
23.2022	79
23.2096	91
23.2170	78
23.2244	69
23.2318	68
23.2392	101
23.2466	78
23.2540	76
23.2614	63
23.2688	82
23.2762	102
23.2836	75
23.2910	107
23.2983	78
23.3057	67
23.3131	91
23.3205	90
23.3279	78
23.3353	81
23.3427	84
23.3501	82
23.3575	85
23.3649	89
23.3723	68
23.3797	101
23.3871	103
23.3945	68
23.4019	104
23.4093	89
23.4167	78
23.4241	75
23.4315	89
23.4389	91
23.4463	99
23.4536	90
23.4610	67
23.4684	78
23.4758	99
23.4832	77
23.4906	83
23.4980	95
23.5054	81
23.5128	89
23.5202	80
23.5276	99
23.5350	76
23.5424	105
23.5498	98
23.5572	87
23.5646	86
23.5720	107
23.5794	87
23.5868	91
23.5942	106
23.6016	80
23.6089	100
23.6163	90
23.6237	98
23.6311	93
23.6385	106
23.6459	111
23.6533	101
23.6607	83
23.6681	91
23.6755	87
23.6829	104
23.6903	98
23.6977	96
23.7051	86
23.7125	107
23.7199	101
23.7273	106
23.7347	113
23.7421	92
23.7495	99
23.7569	95
23.7643	108
23.7716	108
23.7790	126
23.7864	126
23.7938	117
23.8012	97
23.8086	124
23.8160	100
23.8234	125
23.8308	107
23.8382	114
23.8456	125
23.8530	129
23.8604	126
23.8678	122
23.8752	149
23.8826	117
23.8900	148
23.8974	131
23.9048	123
23.9122	155
23.9196	158
23.9269	178
23.9343	175
23.9417	142
23.9491	158
23.9565	206
23.9639	209
23.9713	214
23.9787	239
23.9861	244
23.9935	287
24.0009	310
24.0083	354
24.0157	366
24.0231	424
24.0305	438
24.0379	498
24.0453	593
24.0527	679
24.0601	762
24.0675	761
24.0749	812
24.0822	775
24.0896	740
24.0970	689
24.1044	658
24.1118	657
24.1192	589
24.1266	587
24.1340	523
24.1414	533
24.1488	452
24.1562	405
24.1636	361
24.1710	372
24.1784	325
24.1858	293
24.1932	273
24.2006	234
24.2080	224
24.2154	201
24.2228	216
24.2302	191
24.2375	192
24.2449	200
24.2523	183
24.2597	220
24.2671	214
24.2745	173
24.2819	182
24.2893	192
24.2967	176
24.3041	187
24.3115	221
24.3189	185
24.3263	232
24.3337	225
24.3411	246
24.3485	235
24.3559	255
24.3633	220
24.3707	237
24.3781	235
24.3855	252
24.3928	215
24.4002	242
24.4076	231
24.4150	213
24.4224	217
24.4298	209
24.4372	220
24.4446	185
24.4520	200
24.4594	173
24.4668	181
24.4742	213
24.4816	160
24.4890	227
24.4964	192
24.5038	207
24.5112	161
24.5186	190
24.5260	203
24.5334	208
24.5408	219
24.5481	220
24.5555	226
24.5629	211
24.5703	252
24.5777	245
24.5851	279
24.5925	289
24.5999	263
24.6073	319
24.6147	295
24.6221	305
24.6295	293
24.6369	318
24.6443	332
24.6517	338
24.6591	344
24.6665	373
24.6739	338
24.6813	381
24.6887	382
24.6961	375
24.7034	382
24.7108	371
24.7182	419
24.7256	390
24.7330	458
24.7404	469
24.7478	535
24.7552	517
24.7626	583
24.7700	654
24.7774	695
24.7848	677
24.7922	783
24.7996	841
24.8070	825
24.8144	849
24.8218	855
24.8292	859
24.8366	817
24.8440	808
24.8514	844
24.8587	792
24.8661	779
24.8735	832
24.8809	806
24.8883	669
24.8957	722
24.9031	675
24.9105	708
24.9179	689
24.9253	732
24.9327	798
24.9401	750
24.9475	873
24.9549	909
24.9623	1036
24.9697	1122
24.9771	1306
24.9845	1449
24.9919	1630
24.9993	1846
25.0067	1834
25.0140	2006
25.0214	2007
25.0288	1916
25.0362	1910
25.0436	1726
25.0510	1610
25.0584	1685
25.0658	1584
25.0732	1429
25.0806	1358
25.0880	1244
25.0954	1140
25.1028	1009
25.1102	894
25.1176	741
25.1250	685
25.1324	544
25.1398	490
25.1472	460
25.1546	432
25.1620	367
25.1693	365
25.1767	319
25.1841	299
25.1915	244
25.1989	262
25.2063	272
25.2137	255
25.2211	237
25.2285	250
25.2359	226
25.2433	212
25.2507	213
25.2581	187
25.2655	184
25.2729	188
25.2803	177
25.2877	177
25.2951	176
25.3025	190
25.3099	173
25.3173	191
25.3247	177
25.3320	170
25.3394	143
25.3468	146
25.3542	168
25.3616	144
25.3690	136
25.3764	141
25.3838	143
25.3912	140
25.3986	140
25.4060	130
25.4134	156
25.4208	138
25.4282	141
25.4356	120
25.4430	124
25.4504	123
25.4578	124
25.4652	141
25.4726	120
25.4800	131
25.4873	107
25.4947	133
25.5021	126
25.5095	125
25.5169	130
25.5243	128
25.5317	129
25.5391	123
25.5465	118
25.5539	134
25.5613	103
25.5687	139
25.5761	133
25.5835	141
25.5909	116
25.5983	123
25.6057	142
25.6131	132
25.6205	137
25.6279	119
25.6353	130
25.6426	146
25.6500	162
25.6574	113
25.6648	123
25.6722	136
25.6796	140
25.6870	134
25.6944	154
25.7018	139
25.7092	166
25.7166	169
25.7240	176
25.7314	158
25.7388	166
25.7462	187
25.7536	191
25.7610	173
25.7684	187
25.7758	168
25.7832	176
25.7906	155
25.7979	145
25.8053	141
25.8127	150
25.8201	157
25.8275	144
25.8349	154
25.8423	148
25.8497	127
25.8571	129
25.8645	140
25.8719	129
25.8793	140
25.8867	125
25.8941	127
25.9015	132
25.9089	134
25.9163	117
25.9237	138
25.9311	131
25.9385	121
25.9459	132
25.9532	122
25.9606	143
25.9680	132
25.9754	131
25.9828	126
25.9902	132
25.9976	126
26.0050	130
26.0124	151
26.0198	133
26.0272	127
26.0346	116
26.0420	131
26.0494	154
26.0568	137
26.0642	127
26.0716	137
26.0790	139
26.0864	151
26.0938	144
26.1012	150
26.1085	129
26.1159	121
26.1233	151
26.1307	141
26.1381	142
26.1455	148
26.1529	146
26.1603	144
26.1677	147
26.1751	147
26.1825	139
26.1899	155
26.1973	157
26.2047	136
26.2121	182
26.2195	158
26.2269	161
26.2343	190
26.2417	152
26.2491	178
26.2565	186
26.2638	180
26.2712	181
26.2786	198
26.2860	186
26.2934	184
26.3008	184
26.3082	206
26.3156	193
26.3230	231
26.3304	230
26.3378	229
26.3452	247
26.3526	251
26.3600	255
26.3674	271
26.3748	268
26.3822	309
26.3896	295
26.3970	341
26.4044	309
26.4118	349
26.4191	347
26.4265	395
26.4339	394
26.4413	443
26.4487	566
26.4561	515
26.4635	572
26.4709	641
26.4783	681
26.4857	753
26.4931	821
26.5005	950
26.5079	1040
26.5153	1206
26.5227	1393
26.5301	1544
26.5375	1648
26.5449	1778
26.5523	1836
26.5597	1863
26.5671	1882
26.5744	1761
26.5818	1706
26.5892	1718
26.5966	1576
26.6040	1572
26.6114	1542
26.6188	1443
26.6262	1377
26.6336	1325
26.6410	1191
26.6484	1061
26.6558	992
26.6632	896
26.6706	790
26.6780	745
26.6854	654
26.6928	569
26.7002	595
26.7076	481
26.7150	441
26.7224	419
26.7297	387
26.7371	385
26.7445	349
26.7519	327
26.7593	298
26.7667	284
26.7741	317
26.7815	249
26.7889	264
26.7963	291
26.8037	274
26.8111	250
26.8185	232
26.8259	219
26.8333	233
26.8407	228
26.8481	216
26.8555	209
26.8629	196
26.8703	201
26.8777	182
26.8850	214
26.8924	195
26.8998	184
26.9072	168
26.9146	201
26.9220	183
26.9294	190
26.9368	163
26.9442	181
26.9516	175
26.9590	160
26.9664	154
26.9738	157
26.9812	187
26.9886	177
26.9960	173
27.0034	175
27.0108	168
27.0182	142
27.0256	163
27.0330	159
27.0404	155
27.0477	150
27.0551	151
27.0625	138
27.0699	146
27.0773	150
27.0847	144
27.0921	127
27.0995	163
27.1069	156
27.1143	161
27.1217	151
27.1291	148
27.1365	141
27.1439	170
27.1513	148
27.1587	148
27.1661	140
27.1735	145
27.1809	166
27.1883	156
27.1957	145
27.2030	154
27.2104	175
27.2178	161
27.2252	196
27.2326	181
27.2400	179
27.2474	202
27.2548	180
27.2622	214
27.2696	181
27.2770	205
27.2844	231
27.2918	236
27.2992	240
27.3066	250
27.3140	256
27.3214	294
27.3288	281
27.3362	234
27.3436	235
27.3510	256
27.3583	264
27.3657	226
27.3731	246
27.3805	234
27.3879	222
27.3953	234
27.4027	264
27.4101	202
27.4175	208
27.4249	183
27.4323	195
27.4397	187
27.4471	216
27.4545	163
27.4619	201
27.4693	176
27.4767	171
27.4841	183
27.4915	158
27.4989	172
27.5063	190
27.5136	160
27.5210	158
27.5284	171
27.5358	168
27.5432	158
27.5506	160
27.5580	158
27.5654	193
27.5728	167
27.5802	170
27.5876	191
27.5950	160
27.6024	161
27.6098	150
27.6172	171
27.6246	177
27.6320	191
27.6394	193
27.6468	182
27.6542	223
27.6616	180
27.6689	200
27.6763	186
27.6837	219
27.6911	224
27.6985	254
27.7059	235
27.7133	266
27.7207	272
27.7281	274
27.7355	301
27.7429	316
27.7503	301
27.7577	331
27.7651	324
27.7725	346
27.7799	412
27.7873	401
27.7947	523
27.8021	531
27.8095	588
27.8169	621
27.8242	749
27.8316	765
27.8390	864
27.8464	901
27.8538	871
27.8612	934
27.8686	902
27.8760	926
27.8834	857
27.8908	874
27.8982	815
27.9056	827
27.9130	761
27.9204	774
27.9278	710
27.9352	699
27.9426	689
27.9500	685
27.9574	653
27.9648	588
27.9722	571
27.9795	561
27.9869	536
27.9943	489
28.0017	508
28.0091	534
28.0165	506
28.0239	504
28.0313	462
28.0387	451
28.0461	438
28.0535	434
28.0609	413
28.0683	400
28.0757	414
28.0831	389
28.0905	374
28.0979	349
28.1053	369
28.1127	296
28.1201	314
28.1275	296
28.1348	314
28.1422	284
28.1496	277
28.1570	288
28.1644	336
28.1718	294
28.1792	271
28.1866	294
28.1940	250
28.2014	244
28.2088	316
28.2162	273
28.2236	281
28.2310	252
28.2384	255
28.2458	219
28.2532	237
28.2606	241
28.2680	227
28.2754	179
28.2828	239
28.2901	200
28.2975	197
28.3049	160
28.3123	198
28.3197	184
28.3271	161
28.3345	142
28.3419	163
28.3493	166
28.3567	132
28.3641	145
28.3715	156
28.3789	136
28.3863	115
28.3937	125
28.4011	137
28.4085	131
28.4159	132
28.4233	153
28.4307	121
28.4381	127
28.4454	118
28.4528	129
28.4602	138
28.4676	136
28.4750	106
28.4824	126
28.4898	101
28.4972	114
28.5046	109
28.5120	127
28.5194	126
28.5268	98
28.5342	100
28.5416	132
28.5490	98
28.5564	120
28.5638	130
28.5712	100
28.5786	103
28.5860	90
28.5934	121
28.6008	106
28.6081	120
28.6155	99
28.6229	95
28.6303	121
28.6377	97
28.6451	100
28.6525	87
28.6599	98
28.6673	116
28.6747	91
28.6821	117
28.6895	99
28.6969	96
28.7043	89
28.7117	94
28.7191	99
28.7265	112
28.7339	97
28.7413	98
28.7487	88
28.7561	93
28.7634	108
28.7708	101
28.7782	125
28.7856	97
28.7930	103
28.8004	95
28.8078	101
28.8152	107
28.8226	102
28.8300	87
28.8374	94
28.8448	101
28.8522	109
28.8596	110
28.8670	101
28.8744	99
28.8818	126
28.8892	103
28.8966	106
28.9040	105
28.9114	107
28.9187	79
28.9261	114
28.9335	92
28.9409	92
28.9483	90
28.9557	105
28.9631	104
28.9705	102
28.9779	84
28.9853	81
28.9927	111
29.0001	87
29.0075	100
29.0149	100
29.0223	96
29.0297	98
29.0371	97
29.0445	88
29.0519	90
29.0593	102
29.0667	106
29.0740	115
29.0814	85
29.0888	92
29.0962	93
29.1036	94
29.1110	79
29.1184	80
29.1258	95
29.1332	100
29.1406	88
29.1480	99
29.1554	122
29.1628	111
29.1702	111
29.1776	104
29.1850	112
29.1924	94
29.1998	87
29.2072	102
29.2146	92
29.2220	95
29.2293	109
29.2367	97
29.2441	96
29.2515	100
29.2589	112
29.2663	132
29.2737	130
29.2811	114
29.2885	124
29.2959	119
29.3033	110
29.3107	106
29.3181	130
29.3255	112
29.3329	116
29.3403	119
29.3477	139
29.3551	138
29.3625	144
29.3699	144
29.3773	167
29.3846	152
29.3920	149
29.3994	172
29.4068	156
29.4142	186
29.4216	175
29.4290	227
29.4364	192
29.4438	192
29.4512	210
29.4586	187
29.4660	202
29.4734	176
29.4808	173
29.4882	160
29.4956	195
29.5030	157
29.5104	172
29.5178	174
29.5252	158
29.5326	154
29.5399	155
29.5473	138
29.5547	151
29.5621	128
29.5695	130
29.5769	136
29.5843	143
29.5917	135
29.5991	143
29.6065	149
29.6139	112
29.6213	139
29.6287	149
29.6361	130
29.6435	145
29.6509	159
29.6583	149
29.6657	164
29.6731	156
29.6805	174
29.6879	190
29.6952	190
29.7026	190
29.7100	215
29.7174	196
29.7248	197
29.7322	186
29.7396	176
29.7470	185
29.7544	193
29.7618	197
29.7692	189
29.7766	197
29.7840	153
29.7914	154
29.7988	166
29.8062	176
29.8136	148
29.8210	164
29.8284	152
29.8358	152
29.8432	148
29.8505	150
29.8579	125
29.8653	138
29.8727	137
29.8801	130
29.8875	148
29.8949	125
29.9023	130
29.9097	144
29.9171	140
29.9245	152
29.9319	145
29.9393	123
29.9467	125
29.9541	149
29.9615	151
29.9689	170
29.9763	142
29.9837	172
29.9911	180
29.9985	168
30.0058	234
30.0132	206
30.0206	208
30.0280	247
30.0354	257
30.0428	248
30.0502	250
30.0576	252
30.0650	239
30.0724	216
30.0798	260
30.0872	233
30.0946	252
30.1020	235
30.1094	222
30.1168	214
30.1242	234
30.1316	247
30.1390	199
30.1464	223
30.1538	233
30.1612	222
30.1685	195
30.1759	203
30.1833	197
30.1907	211
30.1981	173
30.2055	183
30.2129	207
30.2203	208
30.2277	194
30.2351	191
30.2425	172
30.2499	205
30.2573	189
30.2647	196
30.2721	190
30.2795	184
30.2869	227
30.2943	251
30.3017	237
30.3091	241
30.3165	261
30.3238	260
30.3312	239
30.3386	241
30.3460	241
30.3534	276
30.3608	305
30.3682	308
30.3756	317
30.3830	311
30.3904	361
30.3978	355
30.4052	344
30.4126	321
30.4200	363
30.4274	356
30.4348	327
30.4422	344
30.4496	286
30.4570	318
30.4644	287
30.4718	286
30.4791	297
30.4865	268
30.4939	251
30.5013	270
30.5087	266
30.5161	225
30.5235	212
30.5309	209
30.5383	188
30.5457	183
30.5531	214
30.5605	173
30.5679	196
30.5753	170
30.5827	153
30.5901	174
30.5975	164
30.6049	152
30.6123	152
30.6197	166
30.6271	192
30.6344	168
30.6418	179
30.6492	157
30.6566	181
30.6640	170
30.6714	174
30.6788	164
30.6862	178
30.6936	161
30.7010	131
30.7084	153
30.7158	163
30.7232	152
30.7306	167
30.7380	164
30.7454	170
30.7528	146
30.7602	144
30.7676	144
30.7750	119
30.7824	115
30.7897	120
30.7971	111
30.8045	127
30.8119	144
30.8193	138
30.8267	110
30.8341	123
30.8415	106
30.8489	131
30.8563	121
30.8637	124
30.8711	143
30.8785	136
30.8859	162
30.8933	172
30.9007	121
30.9081	153
30.9155	142
30.9229	140
30.9303	130
30.9377	137
30.9450	98
30.9524	124
30.9598	136
30.9672	125
30.9746	116
30.9820	110
30.9894	116
30.9968	112
31.0042	104
31.0116	83
31.0190	90
31.0264	116
31.0338	121
31.0412	101
31.0486	88
31.0560	104
31.0634	91
31.0708	99
31.0782	80
31.0856	104
31.0930	90
31.1003	94
31.1077	114
31.1151	92
31.1225	77
31.1299	92
31.1373	78
31.1447	77
31.1521	79
31.1595	82
31.1669	106
31.1743	99
31.1817	86
31.1891	101
31.1965	89
31.2039	75
31.2113	89
31.2187	95
31.2261	96
31.2335	87
31.2409	103
31.2483	78
31.2556	79
31.2630	98
31.2704	88
31.2778	86
31.2852	91
31.2926	87
31.3000	61
31.3074	91
31.3148	85
31.3222	82
31.3296	100
31.3370	85
31.3444	98
31.3518	102
31.3592	65
31.3666	83
31.3740	81
31.3814	63
31.3888	91
31.3962	90
31.4036	76
31.4109	78
31.4183	88
31.4257	83
31.4331	87
31.4405	80
31.4479	85
31.4553	72
31.4627	84
31.4701	94
31.4775	77
31.4849	57
31.4923	73
31.4997	76
31.5071	80
31.5145	68
31.5219	83
31.5293	79
31.5367	76
31.5441	74
31.5515	98
31.5589	68
31.5662	77
31.5736	70
31.5810	79
31.5884	69
31.5958	85
31.6032	91
31.6106	82
31.6180	82
31.6254	64
31.6328	90
31.6402	78
31.6476	85
31.6550	79
31.6624	96
31.6698	67
31.6772	65
31.6846	84
31.6920	80
31.6994	82
31.7068	79
31.7142	67
31.7215	86
31.7289	81
31.7363	73
31.7437	79
31.7511	91
31.7585	82
31.7659	78
31.7733	79
31.7807	97
31.7881	84
31.7955	87
31.8029	89
31.8103	81
31.8177	72
31.8251	82
31.8325	82
31.8399	84
31.8473	99
31.8547	81
31.8621	93
31.8695	107
31.8769	104
31.8842	103
31.8916	87
31.8990	89
31.9064	123
31.9138	117
31.9212	99
31.9286	120
31.9360	131
31.9434	113
31.9508	153
31.9582	130
31.9656	162
31.9730	168
31.9804	189
31.9878	135
31.9952	176
32.0026	140
32.0100	157
32.0174	171
32.0248	134
32.0322	141
32.0395	148
32.0469	131
32.0543	128
32.0617	135
32.0691	126
32.0765	141
32.0839	130
32.0913	115
32.0987	123
32.1061	111
32.1135	104
32.1209	102
32.1283	82
32.1357	98
32.1431	93
32.1505	99
32.1579	86
32.1653	82
32.1727	105
32.1801	88
32.1875	89
32.1948	80
32.2022	89
32.2096	89
32.2170	76
32.2244	83
32.2318	96
32.2392	85
32.2466	81
32.2540	87
32.2614	96
32.2688	84
32.2762	78
32.2836	73
32.2910	90
32.2984	84
32.3058	83
32.3132	99
32.3206	78
32.3280	79
32.3354	70
32.3428	76
32.3501	76
32.3575	73
32.3649	81
32.3723	77
32.3797	71
32.3871	75
32.3945	64
32.4019	91
32.4093	82
32.4167	80
32.4241	76
32.4315	62
32.4389	74
32.4463	81
32.4537	92
32.4611	77
32.4685	66
32.4759	79
32.4833	71
32.4907	88
32.4981	69
32.5054	85
32.5128	58
32.5202	69
32.5276	56
32.5350	76
32.5424	71
32.5498	72
32.5572	68
32.5646	69
32.5720	68
32.5794	64
32.5868	86
32.5942	57
32.6016	72
32.6090	69
32.6164	87
32.6238	67
32.6312	76
32.6386	73
32.6460	71
32.6534	76
32.6607	75
32.6681	91
32.6755	85
32.6829	71
32.6903	71
32.6977	76
32.7051	71
32.7125	79
32.7199	77
32.7273	92
32.7347	76
32.7421	80
32.7495	85
32.7569	75
32.7643	78
32.7717	80
32.7791	86
32.7865	90
32.7939	79
32.8013	80
32.8087	74
32.8160	68
32.8234	63
32.8308	87
32.8382	81
32.8456	83
32.8530	73
32.8604	54
32.8678	84
32.8752	82
32.8826	92
32.8900	75
32.8974	71
32.9048	85
32.9122	87
32.9196	82
32.9270	74
32.9344	74
32.9418	73
32.9492	62
32.9566	70
32.9640	81
32.9713	68
32.9787	67
32.9861	70
32.9935	60
33.0009	74
33.0083	77
33.0157	56
33.0231	80
33.0305	76
33.0379	59
33.0453	97
33.0527	81
33.0601	77
33.0675	74
33.0749	75
33.0823	80
33.0897	77
33.0971	64
33.1045	67
33.1119	69
33.1193	72
33.1266	80
33.1340	65
33.1414	75
33.1488	76
33.1562	84
33.1636	67
33.1710	96
33.1784	57
33.1858	94
33.1932	80
33.2006	97
33.2080	80
33.2154	85
33.2228	71
33.2302	75
33.2376	75
33.2450	77
33.2524	81
33.2598	84
33.2672	66
33.2746	78
33.2819	77
33.2893	76
33.2967	67
33.3041	82
33.3115	83
33.3189	64
33.3263	77
33.3337	70
33.3411	85
33.3485	86
33.3559	74
33.3633	80
33.3707	66
33.3781	65
33.3855	73
33.3929	73
33.4003	77
33.4077	70
33.4151	54
33.4225	57
33.4299	69
33.4373	67
33.4446	76
33.4520	62
33.4594	69
33.4668	75
33.4742	71
33.4816	82
33.4890	57
33.4964	83
33.5038	74
33.5112	73
33.5186	85
33.5260	64
33.5334	99
33.5408	66
33.5482	65
33.5556	81
33.5630	57
33.5704	61
33.5778	88
33.5852	76
33.5926	78
33.5999	77
33.6073	88
33.6147	76
33.6221	80
33.6295	96
33.6369	81
33.6443	69
33.6517	93
33.6591	78
33.6665	84
33.6739	76
33.6813	72
33.6887	82
33.6961	79
33.7035	83
33.7109	89
33.7183	89
33.7257	87
33.7331	87
33.7405	97
33.7479	69
33.7552	80
33.7626	78
33.7700	72
33.7774	89
33.7848	90
33.7922	79
33.7996	76
33.8070	73
33.8144	92
33.8218	81
33.8292	104
33.8366	80
33.8440	79
33.8514	79
33.8588	88
33.8662	76
33.8736	66
33.8810	72
33.8884	82
33.8958	87
33.9032	81
33.9105	76
33.9179	75
33.9253	85
33.9327	78
33.9401	74
33.9475	75
33.9549	66
33.9623	76
33.9697	65
33.9771	71
33.9845	81
33.9919	77
33.9993	79
34.0067	61
34.0141	73
34.0215	68
34.0289	84
34.0363	74
34.0437	64
34.0511	70
34.0585	87
34.0658	70
34.0732	58
34.0806	92
34.0880	77
34.0954	83
34.1028	66
34.1102	76
34.1176	74
34.1250	82
34.1324	60
34.1398	63
34.1472	71
34.1546	66
34.1620	63
34.1694	67
34.1768	68
34.1842	79
34.1916	73
34.1990	67
34.2064	66
34.2138	65
34.2211	79
34.2285	84
34.2359	75
34.2433	81
34.2507	62
34.2581	81
34.2655	71
34.2729	63
34.2803	84
34.2877	68
34.2951	65
34.3025	59
34.3099	61
34.3173	71
34.3247	62
34.3321	85
34.3395	70
34.3469	64
34.3543	57
34.3617	81
34.3691	83
34.3764	74
34.3838	69
34.3912	75
34.3986	72
34.4060	67
34.4134	73
34.4208	63
34.4282	76
34.4356	78
34.4430	65
34.4504	67
34.4578	70
34.4652	87
34.4726	75
34.4800	66
34.4874	68
34.4948	72
34.5022	80
34.5096	68
34.5170	86
34.5244	71
34.5317	78
34.5391	76
34.5465	86
34.5539	88
34.5613	79
34.5687	87
34.5761	101
34.5835	88
34.5909	97
34.5983	109
34.6057	101
34.6131	86
34.6205	85
34.6279	95
34.6353	81
34.6427	84
34.6501	72
34.6575	77
34.6649	85
34.6723	81
34.6797	69
34.6870	87
34.6944	84
34.7018	84
34.7092	87
34.7166	104
34.7240	74
34.7314	79
34.7388	97
34.7462	77
34.7536	81
34.7610	75
34.7684	93
34.7758	76
34.7832	103
34.7906	76
34.7980	82
34.8054	80
34.8128	88
34.8202	83
34.8276	85
34.8350	75
34.8423	89
34.8497	94
34.8571	80
34.8645	73
34.8719	79
34.8793	86
34.8867	77
34.8941	75
34.9015	78
34.9089	73
34.9163	87
34.9237	72
34.9311	80
34.9385	65
34.9459	81
34.9533	70
34.9607	75
34.9681	73
34.9755	75
34.9829	67
34.9903	86
34.9977	74
35.0050	75
35.0124	91
35.0198	68
35.0272	70
35.0346	65
35.0420	66
35.0494	76
35.0568	68
35.0642	62
35.0716	66
35.0790	66
35.0864	68
35.0938	78
35.1012	72
35.1086	71
35.1160	66
35.1234	69
35.1308	79
35.1382	68
35.1456	82
35.1530	70
35.1603	80
35.1677	84
35.1751	70
35.1825	69
35.1899	82
35.1973	80
35.2047	64
35.2121	88
35.2195	70
35.2269	81
35.2343	88
35.2417	85
35.2491	60
35.2565	65
35.2639	73
35.2713	77
35.2787	70
35.2861	76
35.2935	72
35.3009	76
35.3083	78
35.3156	66
35.3230	75
35.3304	76
35.3378	48
35.3452	87
35.3526	65
35.3600	66
35.3674	62
35.3748	79
35.3822	85
35.3896	80
35.3970	76
35.4044	89
35.4118	79
35.4192	72
35.4266	71
35.4340	69
35.4414	88
35.4488	93
35.4562	75
35.4636	75
35.4709	75
35.4783	89
35.4857	74
35.4931	60
35.5005	91
35.5079	89
35.5153	90
35.5227	83
35.5301	87
35.5375	100
35.5449	90
35.5523	89
35.5597	94
35.5671	105
35.5745	83
35.5819	105
35.5893	103
35.5967	110
35.6041	87
35.6115	89
35.6189	89
35.6262	80
35.6336	90
35.6410	100
35.6484	92
35.6558	81
35.6632	87
35.6706	84
35.6780	95
35.6854	107
35.6928	110
35.7002	122
35.7076	95
35.7150	104
35.7224	90
35.7298	86
35.7372	125
35.7446	93
35.7520	101
35.7594	118
35.7668	114
35.7742	105
35.7815	118
35.7889	120
35.7963	140
35.8037	126
35.8111	109
35.8185	162
35.8259	140
35.8333	168
35.8407	141
35.8481	162
35.8555	164
35.8629	149
35.8703	159
35.8777	162
35.8851	150
35.8925	166
35.8999	164
35.9073	153
35.9147	161
35.9221	183
35.9295	155
35.9368	154
35.9442	151
35.9516	170
35.9590	129
35.9664	128
35.9738	121
35.9812	131
35.9886	130
35.9960	116
36.0034	149
36.0108	134
36.0182	134
36.0256	104
36.0330	93
36.0404	105
36.0478	102
36.0552	100
36.0626	125
36.0700	102
36.0774	107
36.0848	113
36.0921	97
36.0995	96
36.1069	104
36.1143	94
36.1217	100
36.1291	99
36.1365	99
36.1439	86
36.1513	93
36.1587	97
36.1661	117
36.1735	112
36.1809	84
36.1883	114
36.1957	100
36.2031	81
36.2105	95
36.2179	105
36.2253	109
36.2327	103
36.2401	85
36.2474	81
36.2548	76
36.2622	109
36.2696	81
36.2770	101
36.2844	82
36.2918	86
36.2992	99
36.3066	89
36.3140	86
36.3214	96
36.3288	85
36.3362	90
36.3436	103
36.3510	101
36.3584	103
36.3658	105
36.3732	112
36.3806	73
36.3880	92
36.3954	103
36.4027	108
36.4101	86
36.4175	108
36.4249	127
36.4323	136
36.4397	130
36.4471	117
36.4545	135
36.4619	125
36.4693	107
36.4767	112
36.4841	107
36.4915	130
36.4989	116
36.5063	88
36.5137	86
36.5211	95
36.5285	104
36.5359	106
36.5433	104
36.5507	87
36.5580	109
36.5654	113
36.5728	112
36.5802	92
36.5876	92
36.5950	76
36.6024	90
36.6098	106
36.6172	92
36.6246	101
36.6320	98
36.6394	112
36.6468	95
36.6542	92
36.6616	113
36.6690	109
36.6764	105
36.6838	79
36.6912	89
36.6986	93
36.7060	91
36.7134	84
36.7207	97
36.7281	96
36.7355	98
36.7429	103
36.7503	89
36.7577	92
36.7651	94
36.7725	90
36.7799	75
36.7873	69
36.7947	73
36.8021	83
36.8095	82
36.8169	66
36.8243	83
36.8317	78
36.8391	75
36.8465	68
36.8539	89
36.8613	81
36.8687	74
36.8760	80
36.8834	74
36.8908	73
36.8982	72
36.9056	90
36.9130	87
36.9204	66
36.9278	65
36.9352	72
36.9426	71
36.9500	63
36.9574	63
36.9648	75
36.9722	60
36.9796	67
36.9870	83
36.9944	81
37.0018	71
37.0092	65
37.0166	74
37.0240	68
37.0313	71
37.0387	67
37.0461	65
37.0535	74
37.0609	70
37.0683	74
37.0757	67
37.0831	75
37.0905	83
37.0979	77
37.1053	75
37.1127	70
37.1201	80
37.1275	70
37.1349	60
37.1423	64
37.1497	80
37.1571	74
37.1645	80
37.1719	56
37.1793	89
37.1866	79
37.1940	81
37.2014	83
37.2088	79
37.2162	72
37.2236	77
37.2310	81
37.2384	73
37.2458	79
37.2532	82
37.2606	73
37.2680	89
37.2754	56
37.2828	72
37.2902	84
37.2976	72
37.3050	73
37.3124	70
37.3198	67
37.3272	78
37.3346	80
37.3419	79
37.3493	95
37.3567	92
37.3641	62
37.3715	76
37.3789	74
37.3863	86
37.3937	71
37.4011	76
37.4085	84
37.4159	49
37.4233	88
37.4307	67
37.4381	70
37.4455	74
37.4529	80
37.4603	68
37.4677	72
37.4751	62
37.4825	72
37.4899	63
37.4972	75
37.5046	65
37.5120	65
37.5194	50
37.5268	74
37.5342	80
37.5416	73
37.5490	85
37.5564	85
37.5638	69
37.5712	81
37.5786	76
37.5860	71
37.5934	81
37.6008	77
37.6082	83
37.6156	92
37.6230	86
37.6304	56
37.6378	68
37.6452	72
37.6525	68
37.6599	79
37.6673	78
37.6747	78
37.6821	74
37.6895	64
37.6969	80
37.7043	79
37.7117	65
37.7191	80
37.7265	72
37.7339	71
37.7413	77
37.7487	81
37.7561	83
37.7635	82
37.7709	77
37.7783	62
37.7857	95
37.7931	91
37.8005	82
37.8078	78
37.8152	66
37.8226	77
37.8300	95
37.8374	96
37.8448	95
37.8522	94
37.8596	87
37.8670	82
37.8744	74
37.8818	86
37.8892	100
37.8966	87
37.9040	84
37.9114	87
37.9188	83
37.9262	91
37.9336	89
37.9410	100
37.9484	98
37.9558	98
37.9631	89
37.9705	86
37.9779	103
37.9853	100
37.9927	111
38.0001	132
38.0075	103
38.0149	95
38.0223	112
38.0297	109
38.0371	78
38.0445	108
38.0519	114
38.0593	89
38.0667	119
38.0741	87
38.0815	98
38.0889	88
38.0963	90
38.1037	106
38.1111	101
38.1184	126
38.1258	108
38.1332	88
38.1406	109
38.1480	93
38.1554	92
38.1628	72
38.1702	89
38.1776	96
38.1850	85
38.1924	89
38.1998	87
38.2072	90
38.2146	105
38.2220	93
38.2294	97
38.2368	103
38.2442	115
38.2516	95
38.2590	120
38.2664	103
38.2738	124
38.2811	126
38.2885	100
38.2959	124
38.3033	123
38.3107	109
38.3181	114
38.3255	105
38.3329	112
38.3403	126
38.3477	112
38.3551	131
38.3625	123
38.3699	118
38.3773	110
38.3847	110
38.3921	117
38.3995	140
38.4069	136
38.4143	121
38.4217	122
38.4291	117
38.4364	104
38.4438	119
38.4512	93
38.4586	117
38.4660	122
38.4734	114
38.4808	104
38.4882	104
38.4956	133
38.5030	119
38.5104	120
38.5178	113
38.5252	131
38.5326	119
38.5400	125
38.5474	131
38.5548	131
38.5622	125
38.5696	137
38.5770	126
38.5844	111
38.5917	127
38.5991	143
38.6065	111
38.6139	87
38.6213	115
38.6287	116
38.6361	109
38.6435	103
38.6509	106
38.6583	98
38.6657	104
38.6731	113
38.6805	107
38.6879	98
38.6953	93
38.7027	97
38.7101	93
38.7175	92
38.7249	89
38.7323	95
38.7397	101
38.7470	83
38.7544	82
38.7618	94
38.7692	81
38.7766	85
38.7840	80
38.7914	72
38.7988	84
38.8062	61
38.8136	84
38.8210	72
38.8284	88
38.8358	65
38.8432	69
38.8506	81
38.8580	77
38.8654	86
38.8728	87
38.8802	81
38.8876	79
38.8950	79
38.9023	68
38.9097	78
38.9171	71
38.9245	74
38.9319	90
38.9393	82
38.9467	80
38.9541	92
38.9615	87
38.9689	79
38.9763	77
38.9837	88
38.9911	78
38.9985	73
39.0059	71
39.0133	85
39.0207	84
39.0281	73
39.0355	101
39.0429	88
39.0503	77
39.0576	93
39.0650	83
39.0724	76
39.0798	82
39.0872	78
39.0946	94
39.1020	94
39.1094	82
39.1168	78
39.1242	90
39.1316	74
39.1390	89
39.1464	88
39.1538	101
39.1612	82
39.1686	71
39.1760	87
39.1834	89
39.1908	74
39.1982	93
39.2056	97
39.2129	100
39.2203	101
39.2277	97
39.2351	80
39.2425	104
39.2499	87
39.2573	115
39.2647	101
39.2721	107
39.2795	107
39.2869	130
39.2943	120
39.3017	112
39.3091	117
39.3165	108
39.3239	123
39.3313	115
39.3387	121
39.3461	96
39.3535	115
39.3609	113
39.3682	99
39.3756	109
39.3830	100
39.3904	105
39.3978	99
39.4052	108
39.4126	103
39.4200	89
39.4274	120
39.4348	92
39.4422	107
39.4496	99
39.4570	96
39.4644	88
39.4718	87
39.4792	104
39.4866	106
39.4940	107
39.5014	100
39.5088	90
39.5162	89
39.5235	96
39.5309	85
39.5383	89
39.5457	92
39.5531	68
39.5605	86
39.5679	78
39.5753	99
39.5827	90
39.5901	84
39.5975	91
39.6049	91
39.6123	78
39.6197	87
39.6271	78
39.6345	84
39.6419	75
39.6493	97
39.6567	102
39.6641	83
39.6715	76
39.6788	74
39.6862	92
39.6936	97
39.7010	80
39.7084	87
39.7158	65
39.7232	83
39.7306	80
39.7380	81
39.7454	87
39.7528	82
39.7602	63
39.7676	88
39.7750	84
39.7824	97
39.7898	70
39.7972	79
39.8046	75
39.8120	92
39.8194	90
39.8268	91
39.8342	73
39.8415	94
39.8489	89
39.8563	74
39.8637	81
39.8711	75
39.8785	80
39.8859	92
39.8933	74
39.9007	94
39.9081	84
39.9155	85
39.9229	84
39.9303	86
39.9377	90
39.9451	93
39.9525	98
39.9599	94
39.9673	96
39.9747	100
39.9821	118
39.9895	102
39.9968	109
