2.0000	130
2.0074	140
2.0148	128
2.0222	141
2.0296	139
2.0370	136
2.0444	129
2.0518	134
2.0592	128
2.0666	127
2.0740	163
2.0813	135
2.0887	147
2.0961	136
2.1035	141
2.1109	133
2.1183	150
2.1257	128
2.1331	109
2.1405	155
2.1479	147
2.1553	148
2.1627	143
2.1701	157
2.1775	139
2.1849	130
2.1923	148
2.1997	153
2.2071	135
2.2145	136
2.2219	118
2.2293	127
2.2366	125
2.2440	129
2.2514	136
2.2588	108
2.2662	117
2.2736	137
2.2810	146
2.2884	130
2.2958	119
2.3032	115
2.3106	122
2.3180	142
2.3254	141
2.3328	141
2.3402	162
2.3476	128
2.3550	145
2.3624	128
2.3698	131
2.3772	121
2.3846	149
2.3919	131
2.3993	141
2.4067	109
2.4141	150
2.4215	122
2.4289	119
2.4363	139
2.4437	106
2.4511	117
2.4585	130
2.4659	131
2.4733	115
2.4807	143
2.4881	132
2.4955	118
2.5029	106
2.5103	134
2.5177	137
2.5251	141
2.5325	131
2.5399	129
2.5472	112
2.5546	104
2.5620	123
2.5694	127
2.5768	125
2.5842	109
2.5916	108
2.5990	109
2.6064	119
2.6138	115
2.6212	132
2.6286	136
2.6360	121
2.6434	107
2.6508	105
2.6582	106
2.6656	118
2.6730	129
2.6804	122
2.6878	121
2.6952	121
2.7025	128
2.7099	117
2.7173	120
2.7247	116
2.7321	113
2.7395	101
2.7469	130
2.7543	121
2.7617	111
2.7691	120
2.7765	110
2.7839	126
2.7913	110
2.7987	104
2.8061	120
2.8135	100
2.8209	126
2.8283	111
2.8357	117
2.8431	117
2.8505	116
2.8579	119
2.8652	127
2.8726	97
2.8800	108
2.8874	111
2.8948	134
2.9022	112
2.9096	104
2.9170	122
2.9244	131
2.9318	113
2.9392	116
2.9466	102
2.9540	112
2.9614	98
2.9688	138
2.9762	109
2.9836	119
2.9910	110
2.9984	102
3.0058	112
3.0132	116
3.0205	110
3.0279	119
3.0353	108
3.0427	112
3.0501	119
3.0575	92
3.0649	91
3.0723	110
3.0797	116
3.0871	110
3.0945	111
3.1019	111
3.1093	126
3.1167	115
3.1241	99
3.1315	87
3.1389	94
3.1463	96
3.1537	119
3.1611	111
3.1685	101
3.1758	111
3.1832	110
3.1906	107
3.1980	110
3.2054	104
3.2128	116
3.2202	105
3.2276	112
3.2350	112
3.2424	121
3.2498	105
3.2572	115
3.2646	87
3.2720	117
3.2794	119
3.2868	108
3.2942	116
3.3016	103
3.3090	103
3.3164	111
3.3238	101
3.3311	113
3.3385	95
3.3459	103
3.3533	116
3.3607	117
3.3681	100
3.3755	98
3.3829	102
3.3903	107
3.3977	112
3.4051	114
3.4125	107
3.4199	105
3.4273	115
3.4347	110
3.4421	110
3.4495	107
3.4569	100
3.4643	107
3.4717	92
3.4791	87
3.4864	111
3.4938	120
3.5012	98
3.5086	105
3.5160	101
3.5234	120
3.5308	100
3.5382	100
3.5456	114
3.5530	116
3.5604	97
3.5678	100
3.5752	102
3.5826	122
3.5900	100
3.5974	109
3.6048	112
3.6122	98
3.6196	108
3.6270	117
3.6344	100
3.6417	85
3.6491	102
3.6565	104
3.6639	101
3.6713	85
3.6787	100
3.6861	95
3.6935	103
3.7009	101
3.7083	121
3.7157	125
3.7231	86
3.7305	123
3.7379	99
3.7453	125
3.7527	90
3.7601	77
3.7675	99
3.7749	69
3.7823	86
3.7897	101
3.7970	99
3.8044	90
3.8118	105
3.8192	97
3.8266	95
3.8340	98
3.8414	97
3.8488	106
3.8562	101
3.8636	102
3.8710	94
3.8784	103
3.8858	104
3.8932	98
3.9006	103
3.9080	100
3.9154	85
3.9228	98
3.9302	88
3.9376	93
3.9450	92
3.9523	100
3.9597	83
3.9671	96
3.9745	86
3.9819	102
3.9893	97
3.9967	93
4.0041	77
4.0115	93
4.0189	80
4.0263	81
4.0337	94
4.0411	104
4.0485	102
4.0559	103
4.0633	96
4.0707	75
4.0781	107
4.0855	107
4.0929	91
4.1003	81
4.1076	82
4.1150	103
4.1224	88
4.1298	66
4.1372	99
4.1446	87
4.1520	63
4.1594	95
4.1668	92
4.1742	78
4.1816	97
4.1890	80
4.1964	94
4.2038	87
4.2112	88
4.2186	85
4.2260	95
4.2334	91
4.2408	88
4.2482	74
4.2556	92
4.2629	94
4.2703	96
4.2777	75
4.2851	92
4.2925	77
4.2999	72
4.3073	90
4.3147	78
4.3221	94
4.3295	89
4.3369	79
4.3443	88
4.3517	81
4.3591	88
4.3665	82
4.3739	71
4.3813	73
4.3887	77
4.3961	92
4.4035	77
4.4109	83
4.4183	83
4.4256	78
4.4330	91
4.4404	69
4.4478	93
4.4552	93
4.4626	80
4.4700	83
4.4774	75
4.4848	87
4.4922	66
4.4996	84
4.5070	80
4.5144	69
4.5218	69
4.5292	81
4.5366	65
4.5440	71
4.5514	77
4.5588	80
4.5662	95
4.5736	83
4.5809	79
4.5883	79
4.5957	71
4.6031	82
4.6105	77
4.6179	77
4.6253	76
4.6327	81
4.6401	80
4.6475	102
4.6549	66
4.6623	81
4.6697	70
4.6771	82
4.6845	71
4.6919	76
4.6993	75
4.7067	72
4.7141	101
4.7215	76
4.7289	69
4.7362	75
4.7436	77
4.7510	53
4.7584	70
4.7658	67
4.7732	76
4.7806	71
4.7880	66
4.7954	78
4.8028	80
4.8102	81
4.8176	69
4.8250	59
4.8324	73
4.8398	81
4.8472	77
4.8546	78
4.8620	84
4.8694	74
4.8768	68
4.8842	81
4.8915	74
4.8989	67
4.9063	64
4.9137	64
4.9211	67
4.9285	70
4.9359	65
4.9433	69
4.9507	79
4.9581	89
4.9655	71
4.9729	70
4.9803	65
4.9877	83
4.9951	64
5.0025	88
5.0099	75
5.0173	78
5.0247	77
5.0321	72
5.0395	75
5.0468	77
5.0542	74
5.0616	93
5.0690	57
5.0764	64
5.0838	79
5.0912	78
5.0986	68
5.1060	66
5.1134	65
5.1208	71
5.1282	79
5.1356	85
5.1430	76
5.1504	83
5.1578	68
5.1652	65
5.1726	63
5.1800	64
5.1874	70
5.1948	67
5.2021	75
5.2095	76
5.2169	93
5.2243	68
5.2317	71
5.2391	69
5.2465	63
5.2539	58
5.2613	76
5.2687	58
5.2761	77
5.2835	59
5.2909	66
5.2983	79
5.3057	76
5.3131	63
5.3205	65
5.3279	60
5.3353	58
5.3427	48
5.3501	74
5.3574	71
5.3648	71
5.3722	60
5.3796	79
5.3870	69
5.3944	71
5.4018	48
5.4092	61
5.4166	58
5.4240	61
5.4314	82
5.4388	67
5.4462	61
5.4536	86
5.4610	79
5.4684	75
5.4758	55
5.4832	64
5.4906	74
5.4980	73
5.5054	71
5.5127	53
5.5201	64
5.5275	57
5.5349	55
5.5423	77
5.5497	56
5.5571	65
5.5645	65
5.5719	89
5.5793	63
5.5867	61
5.5941	64
5.6015	67
5.6089	76
5.6163	74
5.6237	66
5.6311	80
5.6385	64
5.6459	76
5.6533	59
5.6607	68
5.6680	61
5.6754	66
5.6828	74
5.6902	67
5.6976	76
5.7050	76
5.7124	57
5.7198	69
5.7272	63
5.7346	68
5.7420	57
5.7494	53
5.7568	66
5.7642	51
5.7716	59
5.7790	63
5.7864	59
5.7938	69
5.8012	71
5.8086	54
5.8160	77
5.8233	65
5.8307	46
5.8381	64
5.8455	50
5.8529	78
5.8603	59
5.8677	57
5.8751	56
5.8825	69
5.8899	60
5.8973	51
5.9047	58
5.9121	79
5.9195	57
5.9269	49
5.9343	75
5.9417	57
5.9491	63
5.9565	52
5.9639	62
5.9713	66
5.9786	59
5.9860	65
5.9934	63
6.0008	55
6.0082	72
6.0156	62
6.0230	80
6.0304	70
6.0378	69
6.0452	80
6.0526	79
6.0600	67
6.0674	80
6.0748	57
6.0822	80
6.0896	58
6.0970	53
6.1044	64
6.1118	63
6.1192	74
6.1266	50
6.1340	55
6.1413	67
6.1487	61
6.1561	63
6.1635	54
6.1709	67
6.1783	59
6.1857	64
6.1931	63
6.2005	66
6.2079	65
6.2153	65
6.2227	56
6.2301	57
6.2375	58
6.2449	60
6.2523	68
6.2597	68
6.2671	52
6.2745	57
6.2819	64
6.2893	64
6.2966	64
6.3040	59
6.3114	52
6.3188	58
6.3262	54
6.3336	60
6.3410	62
6.3484	68
6.3558	49
6.3632	51
6.3706	61
6.3780	75
6.3854	61
6.3928	60
6.4002	64
6.4076	70
6.4150	60
6.4224	58
6.4298	59
6.4372	63
6.4446	61
6.4519	61
6.4593	67
6.4667	56
6.4741	64
6.4815	77
6.4889	70
6.4963	69
6.5037	62
6.5111	64
6.5185	59
6.5259	71
6.5333	47
6.5407	65
6.5481	43
6.5555	50
6.5629	64
6.5703	71
6.5777	75
6.5851	63
6.5925	46
6.5999	57
6.6072	58
6.6146	66
6.6220	70
6.6294	66
6.6368	64
6.6442	60
6.6516	58
6.6590	58
6.6664	51
6.6738	51
6.6812	63
6.6886	73
6.6960	66
6.7034	65
6.7108	76
6.7182	53
6.7256	58
6.7330	64
6.7404	43
6.7478	56
6.7552	56
6.7625	60
6.7699	48
6.7773	42
6.7847	52
6.7921	62
6.7995	67
6.8069	67
6.8143	55
6.8217	60
6.8291	60
6.8365	51
6.8439	47
6.8513	60
6.8587	59
6.8661	63
6.8735	51
6.8809	59
6.8883	75
6.8957	59
6.9031	53
6.9105	62
6.9178	58
6.9252	52
6.9326	61
6.9400	56
6.9474	55
6.9548	53
6.9622	55
6.9696	65
6.9770	65
6.9844	70
6.9918	59
6.9992	70
7.0066	57
7.0140	61
7.0214	64
7.0288	71
7.0362	69
7.0436	54
7.0510	45
7.0584	61
7.0658	55
7.0731	63
7.0805	63
7.0879	63
7.0953	50
7.1027	64
7.1101	70
7.1175	52
7.1249	50
7.1323	56
7.1397	63
7.1471	63
7.1545	79
7.1619	56
7.1693	59
7.1767	55
7.1841	59
7.1915	68
7.1989	51
7.2063	64
7.2137	52
7.2211	65
7.2284	66
7.2358	46
7.2432	67
7.2506	48
7.2580	51
7.2654	62
7.2728	57
7.2802	62
7.2876	53
7.2950	63
7.3024	58
7.3098	63
7.3172	70
7.3246	68
7.3320	43
7.3394	59
7.3468	57
7.3542	52
7.3616	64
7.3690	41
7.3764	54
7.3837	61
7.3911	52
7.3985	52
7.4059	64
7.4133	59
7.4207	63
7.4281	50
7.4355	51
7.4429	50
7.4503	66
7.4577	59
7.4651	67
7.4725	60
7.4799	66
7.4873	46
7.4947	63
7.5021	59
7.5095	58
7.5169	50
7.5243	60
7.5317	46
7.5390	58
7.5464	59
7.5538	61
7.5612	64
7.5686	55
7.5760	59
7.5834	66
7.5908	63
7.5982	55
7.6056	57
7.6130	62
7.6204	70
7.6278	68
7.6352	83
7.6426	71
7.6500	62
7.6574	72
7.6648	63
7.6722	87
7.6796	80
7.6870	93
7.6944	74
7.7017	98
7.7091	85
7.7165	64
7.7239	75
7.7313	77
7.7387	83
7.7461	60
7.7535	61
7.7609	68
7.7683	57
7.7757	64
7.7831	61
7.7905	54
7.7979	66
7.8053	53
7.8127	71
7.8201	58
7.8275	50
7.8349	68
7.8423	60
7.8497	76
7.8570	76
7.8644	61
7.8718	72
7.8792	60
7.8866	61
7.8940	67
7.9014	67
7.9088	83
7.9162	83
7.9236	72
7.9310	71
7.9384	58
7.9458	51
7.9532	73
7.9606	64
7.9680	77
7.9754	80
7.9828	62
7.9902	62
7.9976	69
8.0050	75
8.0123	68
8.0197	59
8.0271	66
8.0345	76
8.0419	80
8.0493	77
8.0567	72
8.0641	82
8.0715	87
8.0789	79
8.0863	74
8.0937	95
8.1011	83
8.1085	76
8.1159	99
8.1233	87
8.1307	95
8.1381	94
8.1455	99
8.1529	101
8.1603	100
8.1676	113
8.1750	97
8.1824	93
8.1898	118
8.1972	130
8.2046	122
8.2120	138
8.2194	169
8.2268	155
8.2342	200
8.2416	178
8.2490	201
8.2564	217
8.2638	224
8.2712	246
8.2786	224
8.2860	250
8.2934	234
8.3008	292
8.3082	328
8.3156	317
8.3229	317
8.3303	345
8.3377	421
8.3451	438
8.3525	435
8.3599	486
8.3673	520
8.3747	598
8.3821	632
8.3895	757
8.3969	855
8.4043	928
8.4117	1134
8.4191	1247
8.4265	1296
8.4339	1515
8.4413	1821
8.4487	2186
8.4561	2607
8.4635	3184
8.4709	4031
8.4782	5267
8.4856	6871
8.4930	8847
8.5004	10944
8.5078	12668
8.5152	13374
8.5226	13426
8.5300	12171
8.5374	10457
8.5448	8292
8.5522	6470
8.5596	4757
8.5670	3418
8.5744	2364
8.5818	1640
8.5892	1127
8.5966	816
8.6040	619
8.6114	550
8.6188	437
8.6262	418
8.6335	378
8.6409	323
8.6483	323
8.6557	256
8.6631	246
8.6705	279
8.6779	217
8.6853	225
8.6927	213
8.7001	231
8.7075	219
8.7149	213
8.7223	217
8.7297	201
8.7371	184
8.7445	184
8.7519	181
8.7593	194
8.7667	198
8.7741	187
8.7815	195
8.7888	153
8.7962	176
8.8036	177
8.8110	147
8.8184	160
8.8258	163
8.8332	160
8.8406	177
8.8480	137
8.8554	157
8.8628	147
8.8702	144
8.8776	134
8.8850	116
8.8924	165
8.8998	141
8.9072	138
8.9146	150
8.9220	148
8.9294	128
8.9368	127
8.9441	132
8.9515	127
8.9589	136
8.9663	138
8.9737	126
8.9811	123
8.9885	130
8.9959	142
9.0033	119
9.0107	133
9.0181	120
9.0255	125
9.0329	125
9.0403	131
9.0477	135
9.0551	134
9.0625	105
9.0699	132
9.0773	130
9.0847	112
9.0921	127
9.0994	126
9.1068	98
9.1142	103
9.1216	122
9.1290	92
9.1364	125
9.1438	120
9.1512	116
9.1586	115
9.1660	114
9.1734	108
9.1808	104
9.1882	107
9.1956	124
9.2030	115
9.2104	120
9.2178	110
9.2252	142
9.2326	99
9.2400	129
9.2474	118
9.2548	102
9.2621	128
9.2695	101
9.2769	124
9.2843	123
9.2917	103
9.2991	120
9.3065	112
9.3139	115
9.3213	127
9.3287	115
9.3361	101
9.3435	122
9.3509	91
9.3583	97
9.3657	98
9.3731	95
9.3805	74
9.3879	98
9.3953	97
9.4027	94
9.4101	91
9.4174	96
9.4248	74
9.4322	102
9.4396	82
9.4470	91
9.4544	109
9.4618	101
9.4692	99
9.4766	92
9.4840	97
9.4914	89
9.4988	94
9.5062	94
9.5136	87
9.5210	77
9.5284	100
9.5358	90
9.5432	86
9.5506	88
9.5580	98
9.5654	72
9.5727	93
9.5801	74
9.5875	81
9.5949	93
9.6023	95
9.6097	81
9.6171	86
9.6245	97
9.6319	91
9.6393	82
9.6467	102
9.6541	101
9.6615	106
9.6689	88
9.6763	90
9.6837	105
9.6911	82
9.6985	83
9.7059	97
9.7133	97
9.7207	104
9.7280	80
9.7354	95
9.7428	90
9.7502	89
9.7576	100
9.7650	81
9.7724	84
9.7798	77
9.7872	92
9.7946	94
9.8020	93
9.8094	95
9.8168	76
9.8242	86
9.8316	87
9.8390	84
9.8464	65
9.8538	85
9.8612	72
9.8686	86
9.8760	96
9.8833	73
9.8907	83
9.8981	78
9.9055	68
9.9129	88
9.9203	95
9.9277	67
9.9351	77
9.9425	73
9.9499	92
9.9573	73
9.9647	87
9.9721	83
9.9795	78
9.9869	75
9.9943	78
10.0017	68
10.0091	68
10.0165	71
10.0239	60
10.0313	76
10.0386	70
10.0460	98
10.0534	85
10.0608	79
10.0682	77
10.0756	81
10.0830	77
10.0904	85
10.0978	69
10.1052	55
10.1126	69
10.1200	93
10.1274	72
10.1348	73
10.1422	60
10.1496	85
10.1570	72
10.1644	71
10.1718	84
10.1792	53
10.1866	65
10.1939	75
10.2013	77
10.2087	68
10.2161	74
10.2235	77
10.2309	66
10.2383	78
10.2457	77
10.2531	80
10.2605	84
10.2679	68
10.2753	65
10.2827	80
10.2901	86
10.2975	73
10.3049	59
10.3123	67
10.3197	70
10.3271	64
10.3345	71
10.3419	66
10.3492	88
10.3566	69
10.3640	80
10.3714	70
10.3788	71
10.3862	77
10.3936	49
10.4010	74
10.4084	59
10.4158	70
10.4232	75
10.4306	74
10.4380	67
10.4454	88
10.4528	64
10.4602	52
10.4676	57
10.4750	68
10.4824	74
10.4898	74
10.4972	58
10.5045	63
10.5119	70
10.5193	79
10.5267	79
10.5341	64
10.5415	63
10.5489	66
10.5563	78
10.5637	76
10.5711	74
10.5785	66
10.5859	72
10.5933	79
10.6007	65
10.6081	69
10.6155	51
10.6229	61
10.6303	56
10.6377	51
10.6451	52
10.6525	78
10.6598	68
10.6672	61
10.6746	63
10.6820	67
10.6894	60
10.6968	74
10.7042	55
10.7116	73
10.7190	65
10.7264	74
10.7338	72
10.7412	62
10.7486	64
10.7560	73
10.7634	61
10.7708	77
10.7782	64
10.7856	57
10.7930	63
10.8004	68
10.8078	69
10.8151	70
10.8225	57
10.8299	70
10.8373	62
10.8447	74
10.8521	73
10.8595	59
10.8669	49
10.8743	67
10.8817	70
10.8891	64
10.8965	61
10.9039	59
10.9113	52
10.9187	57
10.9261	65
10.9335	64
10.9409	64
10.9483	58
10.9557	61
10.9631	73
10.9705	70
10.9778	69
10.9852	49
10.9926	55
11.0000	70
11.0074	65
11.0148	59
11.0222	65
11.0296	66
11.0370	57
11.0444	55
11.0518	65
11.0592	58
11.0666	41
11.0740	67
11.0814	63
11.0888	68
11.0962	74
11.1036	57
11.1110	61
11.1184	56
11.1258	67
11.1331	78
11.1405	76
11.1479	69
11.1553	60
11.1627	74
11.1701	68
11.1775	64
11.1849	66
11.1923	64
11.1997	71
11.2071	68
11.2145	60
11.2219	58
11.2293	63
11.2367	59
11.2441	60
11.2515	79
11.2589	66
11.2663	75
11.2737	69
11.2811	61
11.2884	73
11.2958	75
11.3032	82
11.3106	89
11.3180	80
11.3254	71
11.3328	76
11.3402	75
11.3476	82
11.3550	73
11.3624	72
11.3698	99
11.3772	82
11.3846	74
11.3920	86
11.3994	91
11.4068	79
11.4142	81
11.4216	69
11.4290	75
11.4364	77
11.4437	85
11.4511	98
11.4585	104
11.4659	103
11.4733	107
11.4807	84
11.4881	97
11.4955	101
11.5029	111
11.5103	110
11.5177	122
11.5251	123
11.5325	120
11.5399	145
11.5473	141
11.5547	137
11.5621	142
11.5695	155
11.5769	184
11.5843	215
11.5917	230
11.5990	273
11.6064	299
11.6138	328
11.6212	423
11.6286	505
11.6360	568
11.6434	675
11.6508	844
11.6582	1008
11.6656	1227
11.6730	1565
11.6804	1942
11.6878	2327
11.6952	2498
11.7026	2673
11.7100	2661
11.7174	2509
11.7248	2282
11.7322	1958
11.7396	1723
11.7470	1331
11.7543	1008
11.7617	749
11.7691	592
11.7765	435
11.7839	313
11.7913	202
11.7987	179
11.8061	177
11.8135	138
11.8209	117
11.8283	114
11.8357	104
11.8431	113
11.8505	103
11.8579	99
11.8653	108
11.8727	101
11.8801	88
11.8875	100
11.8949	83
11.9023	102
11.9096	103
11.9170	86
11.9244	98
11.9318	119
11.9392	94
11.9466	105
11.9540	110
11.9614	107
11.9688	108
11.9762	97
11.9836	86
11.9910	103
11.9984	90
12.0058	105
12.0132	89
12.0206	101
12.0280	101
12.0354	81
12.0428	90
12.0502	98
12.0576	88
12.0649	84
12.0723	94
12.0797	75
12.0871	79
12.0945	93
12.1019	99
12.1093	101
12.1167	97
12.1241	119
12.1315	109
12.1389	104
12.1463	121
12.1537	115
12.1611	91
12.1685	108
12.1759	126
12.1833	127
12.1907	137
12.1981	148
12.2055	127
12.2129	172
12.2202	182
12.2276	199
12.2350	217
12.2424	277
12.2498	293
12.2572	317
12.2646	375
12.2720	471
12.2794	546
12.2868	658
12.2942	831
12.3016	1018
12.3090	1133
12.3164	1405
12.3238	1739
12.3312	2109
12.3386	2287
12.3460	2475
12.3534	2509
12.3608	2498
12.3682	2278
12.3755	2100
12.3829	1856
12.3903	1479
12.3977	1212
12.4051	1018
12.4125	824
12.4199	560
12.4273	420
12.4347	346
12.4421	296
12.4495	230
12.4569	178
12.4643	129
12.4717	144
12.4791	123
12.4865	136
12.4939	99
12.5013	113
12.5087	99
12.5161	102
12.5235	106
12.5309	89
12.5382	94
12.5456	105
12.5530	100
12.5604	95
12.5678	80
12.5752	92
12.5826	78
12.5900	85
12.5974	85
12.6048	70
12.6122	105
12.6196	89
12.6270	93
12.6344	92
12.6418	84
12.6492	90
12.6566	108
12.6640	105
12.6714	80
12.6788	92
12.6862	78
12.6935	77
12.7009	85
12.7083	79
12.7157	71
12.7231	91
12.7305	92
12.7379	70
12.7453	92
12.7527	87
12.7601	86
12.7675	79
12.7749	104
12.7823	82
12.7897	76
12.7971	85
12.8045	101
12.8119	90
12.8193	95
12.8267	94
12.8341	96
12.8415	83
12.8488	103
12.8562	91
12.8636	98
12.8710	74
12.8784	97
12.8858	92
12.8932	84
12.9006	90
12.9080	87
12.9154	91
12.9228	95
12.9302	74
12.9376	95
12.9450	93
12.9524	106
12.9598	101
12.9672	88
12.9746	93
12.9820	85
12.9894	93
12.9968	101
13.0041	96
13.0115	102
13.0189	84
13.0263	113
13.0337	110
13.0411	119
13.0485	98
13.0559	112
13.0633	122
13.0707	130
13.0781	123
13.0855	127
13.0929	155
13.1003	185
13.1077	167
13.1151	212
13.1225	198
13.1299	293
13.1373	313
13.1447	405
13.1521	411
13.1594	517
13.1668	586
13.1742	669
13.1816	848
13.1890	1068
13.1964	1376
13.2038	1593
13.2112	1992
13.2186	2255
13.2260	2497
13.2334	2632
13.2408	2607
13.2482	2328
13.2556	2162
13.2630	1853
13.2704	1564
13.2778	1274
13.2852	994
13.2926	758
13.3000	606
13.3074	419
13.3147	357
13.3221	250
13.3295	214
13.3369	182
13.3443	166
13.3517	159
13.3591	172
13.3665	148
13.3739	136
13.3813	128
13.3887	132
13.3961	147
13.4035	125
13.4109	139
13.4183	127
13.4257	133
13.4331	120
13.4405	137
13.4479	153
13.4553	120
13.4627	165
13.4700	127
13.4774	161
13.4848	147
13.4922	157
13.4996	171
13.5070	169
13.5144	194
13.5218	187
13.5292	210
13.5366	246
13.5440	262
13.5514	347
13.5588	377
13.5662	370
13.5736	483
13.5810	546
13.5884	698
13.5958	779
13.6032	928
13.6106	1214
13.6180	1341
13.6253	1784
13.6327	2227
13.6401	2631
13.6475	3185
13.6549	3549
13.6623	3882
13.6697	3836
13.6771	3762
13.6845	3433
13.6919	3267
13.6993	2751
13.7067	2277
13.7141	1870
13.7215	1501
13.7289	1113
13.7363	894
13.7437	649
13.7511	487
13.7585	392
13.7659	301
13.7733	286
13.7806	228
13.7880	205
13.7954	164
13.8028	159
13.8102	175
13.8176	156
13.8250	160
13.8324	129
13.8398	133
13.8472	126
13.8546	116
13.8620	120
13.8694	129
13.8768	137
13.8842	130
13.8916	127
13.8990	116
13.9064	109
13.9138	103
13.9212	112
13.9286	102
13.9359	118
13.9433	99
13.9507	89
13.9581	102
13.9655	95
13.9729	89
13.9803	92
13.9877	98
13.9951	109
14.0025	98
14.0099	98
14.0173	99
14.0247	82
14.0321	85
14.0395	66
14.0469	102
14.0543	86
14.0617	99
14.0691	106
14.0765	103
14.0839	82
14.0913	80
14.0986	88
14.1060	93
14.1134	94
14.1208	87
14.1282	84
14.1356	98
14.1430	81
14.1504	86
14.1578	67
14.1652	90
14.1726	85
14.1800	91
14.1874	74
14.1948	93
14.2022	64
14.2096	80
14.2170	86
14.2244	95
14.2318	74
14.2392	85
14.2466	71
14.2539	96
14.2613	94
14.2687	87
14.2761	105
14.2835	107
14.2909	74
14.2983	80
14.3057	89
14.3131	97
14.3205	92
14.3279	89
14.3353	80
14.3427	120
14.3501	107
14.3575	102
14.3649	131
14.3723	138
14.3797	105
14.3871	123
14.3945	143
14.4019	127
14.4092	133
14.4166	118
14.4240	116
14.4314	111
14.4388	106
14.4462	102
14.4536	107
14.4610	85
14.4684	80
14.4758	84
14.4832	88
14.4906	75
14.4980	69
14.5054	78
14.5128	81
14.5202	73
14.5276	89
14.5350	66
14.5424	80
14.5498	70
14.5572	54
14.5645	78
14.5719	77
14.5793	61
14.5867	65
14.5941	63
14.6015	65
14.6089	70
14.6163	65
14.6237	80
14.6311	73
14.6385	75
14.6459	58
14.6533	78
14.6607	77
14.6681	67
14.6755	66
14.6829	66
14.6903	66
14.6977	81
14.7051	64
14.7125	65
14.7198	67
14.7272	64
14.7346	65
14.7420	63
14.7494	71
14.7568	88
14.7642	69
14.7716	62
14.7790	59
14.7864	70
14.7938	68
14.8012	67
14.8086	59
14.8160	78
14.8234	73
14.8308	71
14.8382	61
14.8456	74
14.8530	56
14.8604	71
14.8678	52
14.8751	69
14.8825	81
14.8899	74
14.8973	87
14.9047	65
14.9121	64
14.9195	58
14.9269	79
14.9343	87
14.9417	65
14.9491	56
14.9565	68
14.9639	52
14.9713	73
14.9787	70
14.9861	62
14.9935	68
15.0009	74
15.0083	55
15.0157	69
15.0231	59
15.0304	55
15.0378	66
15.0452	62
15.0526	48
15.0600	62
15.0674	63
15.0748	64
15.0822	67
15.0896	53
15.0970	51
15.1044	69
15.1118	65
15.1192	56
15.1266	73
15.1340	68
15.1414	64
15.1488	72
15.1562	65
15.1636	39
15.1710	72
15.1784	51
15.1857	63
15.1931	64
15.2005	67
15.2079	76
15.2153	63
15.2227	80
15.2301	60
15.2375	70
15.2449	64
15.2523	65
15.2597	52
15.2671	64
15.2745	59
15.2819	65
15.2893	71
15.2967	57
15.3041	71
15.3115	52
15.3189	50
15.3263	50
15.3337	71
15.3410	67
15.3484	59
15.3558	73
15.3632	68
15.3706	74
15.3780	51
15.3854	60
15.3928	82
15.4002	64
15.4076	70
15.4150	70
15.4224	76
15.4298	67
15.4372	67
15.4446	61
15.4520	67
15.4594	58
15.4668	62
15.4742	62
15.4816	76
15.4890	66
15.4963	79
15.5037	79
15.5111	84
15.5185	71
15.5259	75
15.5333	76
15.5407	85
15.5481	95
15.5555	97
15.5629	70
15.5703	62
15.5777	87
15.5851	73
15.5925	78
15.5999	69
15.6073	87
15.6147	84
15.6221	74
15.6295	63
15.6369	75
15.6443	73
15.6516	78
15.6590	60
15.6664	55
15.6738	65
15.6812	66
15.6886	73
15.6960	50
15.7034	71
15.7108	57
15.7182	47
15.7256	52
15.7330	56
15.7404	72
15.7478	53
15.7552	50
15.7626	74
15.7700	53
15.7774	50
15.7848	60
15.7922	65
15.7996	64
15.8070	65
15.8143	63
15.8217	65
15.8291	58
15.8365	53
15.8439	61
15.8513	61
15.8587	67
15.8661	60
15.8735	61
15.8809	57
15.8883	52
15.8957	52
15.9031	63
15.9105	73
15.9179	58
15.9253	52
15.9327	48
15.9401	50
15.9475	55
15.9549	50
15.9623	59
15.9696	58
15.9770	64
15.9844	55
15.9918	57
15.9992	63
16.0066	50
16.0140	46
16.0214	49
16.0288	71
16.0362	67
16.0436	48
16.0510	37
16.0584	58
16.0658	62
16.0732	62
16.0806	58
16.0880	45
16.0954	59
16.1028	63
16.1102	61
16.1176	51
16.1249	50
16.1323	56
16.1397	56
16.1471	65
16.1545	45
16.1619	82
16.1693	60
16.1767	60
16.1841	60
16.1915	47
16.1989	62
16.2063	58
16.2137	61
16.2211	58
16.2285	60
16.2359	74
16.2433	63
16.2507	47
16.2581	60
16.2655	69
16.2729	60
16.2802	43
16.2876	68
16.2950	59
16.3024	58
16.3098	66
16.3172	63
16.3246	65
16.3320	71
16.3394	58
16.3468	81
16.3542	57
16.3616	68
16.3690	70
16.3764	54
16.3838	70
16.3912	66
16.3986	88
16.4060	69
16.4134	69
16.4208	73
16.4282	74
16.4355	67
16.4429	67
16.4503	59
16.4577	74
16.4651	77
16.4725	77
16.4799	77
16.4873	71
16.4947	90
16.5021	80
16.5095	82
16.5169	84
16.5243	88
16.5317	78
16.5391	84
16.5465	76
16.5539	73
16.5613	79
16.5687	78
16.5761	79
16.5835	84
16.5908	74
16.5982	82
16.6056	98
16.6130	80
16.6204	78
16.6278	99
16.6352	90
16.6426	79
16.6500	87
16.6574	94
16.6648	85
16.6722	83
16.6796	98
16.6870	103
16.6944	103
16.7018	94
16.7092	85
16.7166	110
16.7240	129
16.7314	133
16.7388	136
16.7461	157
16.7535	170
16.7609	209
16.7683	205
16.7757	247
16.7831	270
16.7905	328
16.7979	347
16.8053	369
16.8127	406
16.8201	442
16.8275	455
16.8349	439
16.8423	409
16.8497	374
16.8571	370
16.8645	395
16.8719	338
16.8793	340
16.8867	308
16.8941	359
16.9014	311
16.9088	315
16.9162	325
16.9236	331
16.9310	340
16.9384	420
16.9458	447
16.9532	575
16.9606	643
16.9680	867
16.9754	1072
16.9828	1396
16.9902	1913
16.9976	2413
17.0050	2734
17.0124	2820
17.0198	2843
17.0272	2780
17.0346	2551
17.0420	2303
17.0494	2121
17.0567	1879
17.0641	1704
17.0715	1314
17.0789	1039
17.0863	872
17.0937	640
17.1011	499
17.1085	381
17.1159	280
17.1233	241
17.1307	225
17.1381	154
17.1455	162
17.1529	140
17.1603	134
17.1677	120
17.1751	126
17.1825	109
17.1899	109
17.1973	116
17.2047	114
17.2120	99
17.2194	95
17.2268	79
17.2342	97
17.2416	108
17.2490	101
17.2564	73
17.2638	80
17.2712	92
17.2786	95
17.2860	73
17.2934	104
17.3008	79
17.3082	97
17.3156	81
17.3230	80
17.3304	90
17.3378	87
17.3452	87
17.3526	80
17.3600	89
17.3674	84
17.3747	81
17.3821	74
17.3895	91
17.3969	68
17.4043	82
17.4117	72
17.4191	69
17.4265	75
17.4339	72
17.4413	105
17.4487	69
17.4561	74
17.4635	78
17.4709	62
17.4783	71
17.4857	74
17.4931	62
17.5005	70
17.5079	76
17.5153	77
17.5227	72
17.5300	78
17.5374	81
17.5448	66
17.5522	76
17.5596	82
17.5670	81
17.5744	68
17.5818	67
17.5892	89
17.5966	61
17.6040	82
17.6114	84
17.6188	85
17.6262	77
17.6336	89
17.6410	72
17.6484	78
17.6558	81
17.6632	89
17.6706	88
17.6780	93
17.6853	91
17.6927	92
17.7001	100
17.7075	112
17.7149	88
17.7223	111
17.7297	112
17.7371	124
17.7445	148
17.7519	167
17.7593	217
17.7667	242
17.7741	237
17.7815	271
17.7889	330
17.7963	344
17.8037	340
17.8111	391
17.8185	382
17.8259	439
17.8333	477
17.8406	549
17.8480	581
17.8554	517
17.8628	519
17.8702	564
17.8776	532
17.8850	496
17.8924	468
17.8998	436
17.9072	378
17.9146	304
17.9220	260
17.9294	246
17.9368	210
17.9442	151
17.9516	163
17.9590	118
17.9664	129
17.9738	112
17.9812	95
17.9886	108
17.9959	87
18.0033	93
18.0107	102
18.0181	86
18.0255	92
18.0329	79
18.0403	80
18.0477	86
18.0551	98
18.0625	80
18.0699	78
18.0773	71
18.0847	88
18.0921	82
18.0995	82
18.1069	81
18.1143	71
18.1217	68
18.1291	73
18.1365	74
18.1439	80
18.1512	89
18.1586	91
18.1660	65
18.1734	79
18.1808	79
18.1882	83
18.1956	58
18.2030	89
18.2104	76
18.2178	92
18.2252	74
18.2326	92
18.2400	86
18.2474	75
18.2548	72
18.2622	81
18.2696	86
18.2770	92
18.2844	91
18.2918	82
18.2992	84
18.3065	81
18.3139	76
18.3213	68
18.3287	87
18.3361	76
18.3435	78
18.3509	71
18.3583	72
18.3657	86
18.3731	76
18.3805	92
18.3879	84
18.3953	95
18.4027	88
18.4101	103
18.4175	100
18.4249	112
18.4323	142
18.4397	129
18.4471	137
18.4545	134
18.4618	142
18.4692	166
18.4766	185
18.4840	232
18.4914	279
18.4988	329
18.5062	400
18.5136	554
18.5210	610
18.5284	774
18.5358	867
18.5432	1000
18.5506	975
18.5580	1017
18.5654	1017
18.5728	1024
18.5802	1082
18.5876	1134
18.5950	1213
18.6024	1268
18.6098	1177
18.6171	1256
18.6245	1181
18.6319	1083
18.6393	996
18.6467	886
18.6541	776
18.6615	699
18.6689	617
18.6763	539
18.6837	459
18.6911	381
18.6985	301
18.7059	215
18.7133	231
18.7207	149
18.7281	137
18.7355	134
18.7429	135
18.7503	126
18.7577	86
18.7651	104
18.7724	105
18.7798	89
18.7872	98
18.7946	81
18.8020	82
18.8094	75
18.8168	104
18.8242	78
18.8316	81
18.8390	105
18.8464	97
18.8538	113
18.8612	73
18.8686	95
18.8760	99
18.8834	75
18.8908	83
18.8982	93
18.9056	94
18.9130	89
18.9204	98
18.9278	102
18.9351	81
18.9425	87
18.9499	89
18.9573	77
18.9647	109
18.9721	97
18.9795	82
18.9869	105
18.9943	62
19.0017	73
19.0091	84
19.0165	74
19.0239	93
19.0313	81
19.0387	81
19.0461	71
19.0535	80
19.0609	72
19.0683	67
19.0757	81
19.0831	78
19.0904	73
19.0978	76
19.1052	58
19.1126	64
19.1200	80
19.1274	81
19.1348	61
19.1422	57
19.1496	72
19.1570	77
19.1644	80
19.1718	87
19.1792	72
19.1866	68
19.1940	81
19.2014	83
19.2088	87
19.2162	74
19.2236	68
19.2310	75
19.2384	72
19.2457	68
19.2531	70
19.2605	59
19.2679	85
19.2753	80
19.2827	63
19.2901	65
19.2975	79
19.3049	78
19.3123	85
19.3197	85
19.3271	98
19.3345	92
19.3419	95
19.3493	97
19.3567	102
19.3641	119
19.3715	134
19.3789	145
19.3863	169
19.3937	196
19.4010	202
19.4084	273
19.4158	283
19.4232	311
19.4306	391
19.4380	399
19.4454	408
19.4528	380
19.4602	355
19.4676	358
19.4750	360
19.4824	336
19.4898	294
19.4972	252
19.5046	242
19.5120	194
19.5194	185
19.5268	167
19.5342	163
19.5416	134
19.5490	124
19.5563	110
19.5637	78
19.5711	94
19.5785	89
19.5859	80
19.5933	68
19.6007	95
19.6081	79
19.6155	70
19.6229	79
19.6303	57
19.6377	66
19.6451	90
19.6525	83
19.6599	83
19.6673	72
19.6747	72
19.6821	83
19.6895	85
19.6969	91
19.7043	73
19.7116	73
19.7190	74
19.7264	85
19.7338	77
19.7412	60
19.7486	81
19.7560	77
19.7634	92
19.7708	77
19.7782	85
19.7856	92
19.7930	73
19.8004	79
19.8078	101
19.8152	97
19.8226	101
19.8300	101
19.8374	89
19.8448	84
19.8522	99
19.8596	76
19.8669	72
19.8743	103
19.8817	68
19.8891	88
19.8965	76
19.9039	91
19.9113	93
19.9187	70
19.9261	88
19.9335	82
19.9409	85
19.9483	88
19.9557	84
19.9631	76
19.9705	90
19.9779	61
19.9853	85
19.9927	85
20.0001	70
20.0075	81
20.0149	74
20.0222	81
20.0296	87
20.0370	70
20.0444	102
20.0518	99
20.0592	78
20.0666	64
20.0740	79
20.0814	77
20.0888	64
20.0962	83
20.1036	89
20.1110	86
20.1184	88
20.1258	86
20.1332	66
20.1406	62
20.1480	66
20.1554	64
20.1628	85
20.1702	89
20.1775	76
20.1849	77
20.1923	88
20.1997	62
20.2071	85
20.2145	79
20.2219	69
20.2293	100
20.2367	79
20.2441	84
20.2515	74
20.2589	86
20.2663	80
20.2737	89
20.2811	61
20.2885	94
20.2959	74
20.3033	96
20.3107	100
20.3181	84
20.3255	93
20.3328	78
20.3402	86
20.3476	99
20.3550	104
20.3624	118
20.3698	113
20.3772	107
20.3846	101
20.3920	101
20.3994	109
20.4068	103
20.4142	133
20.4216	138
20.4290	168
20.4364	174
20.4438	208
20.4512	255
20.4586	327
20.4660	390
20.4734	485
20.4808	512
20.4882	581
20.4955	678
20.5029	712
20.5103	733
20.5177	783
20.5251	734
20.5325	708
20.5399	661
20.5473	615
20.5547	585
20.5621	473
20.5695	469
20.5769	436
20.5843	327
20.5917	314
20.5991	262
20.6065	215
20.6139	210
20.6213	174
20.6287	171
20.6361	138
20.6435	142
20.6508	114
20.6582	96
20.6656	110
20.6730	100
20.6804	120
20.6878	93
20.6952	107
20.7026	92
20.7100	119
20.7174	102
20.7248	111
20.7322	102
20.7396	108
20.7470	92
20.7544	82
20.7618	105
20.7692	95
20.7766	102
20.7840	108
20.7914	106
20.7988	108
20.8061	96
20.8135	89
20.8209	122
20.8283	109
20.8357	117
20.8431	114
20.8505	122
20.8579	86
20.8653	104
20.8727	130
20.8801	115
20.8875	138
20.8949	154
20.9023	188
20.9097	210
20.9171	236
20.9245	228
20.9319	241
20.9393	236
20.9467	242
20.9541	225
20.9614	213
20.9688	217
20.9762	180
20.9836	197
20.9910	159
20.9984	178
21.0058	184
21.0132	171
21.0206	139
21.0280	127
21.0354	124
21.0428	116
21.0502	115
21.0576	130
21.0650	136
21.0724	118
21.0798	112
21.0872	122
21.0946	113
21.1020	111
21.1094	119
21.1167	133
21.1241	119
21.1315	119
21.1389	109
21.1463	117
21.1537	115
21.1611	122
21.1685	159
21.1759	131
21.1833	158
21.1907	155
21.1981	172
21.2055	169
21.2129	158
21.2203	189
21.2277	160
21.2351	184
21.2425	154
21.2499	187
21.2573	190
21.2647	188
21.2720	198
21.2794	186
21.2868	148
21.2942	191
21.3016	223
21.3090	194
21.3164	172
21.3238	188
21.3312	195
21.3386	214
21.3460	226
21.3534	202
21.3608	225
21.3682	226
21.3756	259
21.3830	257
21.3904	264
21.3978	303
21.4052	321
21.4126	410
21.4200	405
21.4273	482
21.4347	585
21.4421	693
21.4495	860
21.4569	1072
21.4643	1308
21.4717	1588
21.4791	1946
21.4865	2089
21.4939	2343
21.5013	2376
21.5087	2343
21.5161	2233
21.5235	2105
21.5309	1906
21.5383	1765
21.5457	1790
21.5531	1545
21.5605	1410
21.5679	1272
21.5753	1023
21.5826	888
21.5900	738
21.5974	623
21.6048	534
21.6122	480
21.6196	472
21.6270	428
21.6344	381
21.6418	431
21.6492	415
21.6566	401
21.6640	388
21.6714	395
21.6788	414
21.6862	433
21.6936	431
21.7010	398
21.7084	437
21.7158	457
21.7232	437
21.7306	443
21.7379	426
21.7453	416
21.7527	400
21.7601	450
21.7675	463
21.7749	485
21.7823	424
21.7897	435
21.7971	492
21.8045	485
21.8119	540
21.8193	586
21.8267	667
21.8341	677
21.8415	836
21.8489	872
21.8563	1076
21.8637	1304
21.8711	1504
21.8785	1950
21.8859	2329
21.8932	3063
21.9006	4097
21.9080	5227
21.9154	6776
21.9228	8422
21.9302	10041
21.9376	11930
21.9450	12397
21.9524	12716
21.9598	12382
21.9672	11735
21.9746	10626
21.9820	10158
21.9894	9593
21.9968	9064
22.0042	8238
22.0116	7148
22.0190	6007
22.0264	4968
22.0338	3917
22.0412	3103
22.0485	2554
22.0559	1941
22.0633	1413
22.0707	1204
22.0781	890
22.0855	735
22.0929	661
22.1003	527
22.1077	535
22.1151	447
22.1225	387
22.1299	388
22.1373	399
22.1447	360
22.1521	317
22.1595	291
22.1669	314
22.1743	304
22.1817	320
22.1891	272
22.1965	276
22.2039	281
22.2112	268
22.2186	222
22.2260	237
22.2334	241
22.2408	263
22.2482	234
22.2556	231
22.2630	206
22.2704	207
22.2778	239
22.2852	233
22.2926	205
22.3000	207
22.3074	221
22.3148	209
22.3222	203
22.3296	211
22.3370	185
22.3444	201
22.3518	193
22.3592	189
22.3665	193
22.3739	195
22.3813	194
22.3887	155
22.3961	182
22.4035	178
22.4109	168
22.4183	175
22.4257	158
22.4331	180
22.4405	153
22.4479	202
22.4553	169
22.4627	148
22.4701	181
22.4775	172
22.4849	147
22.4923	156
22.4997	155
22.5071	155
22.5145	165
22.5218	158
22.5292	150
22.5366	147
22.5440	144
22.5514	148
22.5588	159
22.5662	149
22.5736	167
22.5810	149
22.5884	163
22.5958	144
22.6032	183
22.6106	151
22.6180	138
22.6254	171
22.6328	164
22.6402	164
22.6476	163
22.6550	178
22.6624	182
22.6698	200
22.6771	208
22.6845	217
22.6919	245
22.6993	237
22.7067	250
22.7141	304
22.7215	338
22.7289	368
22.7363	432
22.7437	443
22.7511	432
22.7585	434
22.7659	445
22.7733	397
22.7807	404
22.7881	416
22.7955	404
22.8029	351
22.8103	355
22.8177	285
22.8251	249
22.8324	271
22.8398	223
22.8472	203
22.8546	221
22.8620	161
22.8694	189
22.8768	169
22.8842	140
22.8916	151
22.8990	154
22.9064	149
22.9138	171
22.9212	137
22.9286	131
22.9360	129
22.9434	137
22.9508	133
22.9582	146
22.9656	155
22.9730	134
22.9804	135
22.9877	128
22.9951	138
23.0025	136
23.0099	132
23.0173	112
23.0247	158
23.0321	146
23.0395	128
23.0469	119
23.0543	143
23.0617	134
23.0691	139
23.0765	132
23.0839	150
23.0913	129
23.0987	122
23.1061	152
23.1135	144
23.1209	150
23.1283	136
23.1357	133
23.1430	133
23.1504	134
23.1578	133
23.1652	135
23.1726	154
23.1800	133
23.1874	132
23.1948	127
23.2022	129
23.2096	109
23.2170	123
23.2244	115
23.2318	122
23.2392	125
23.2466	147
23.2540	144
23.2614	136
23.2688	126
23.2762	153
23.2836	118
23.2910	140
23.2983	152
23.3057	139
23.3131	119
23.3205	144
23.3279	146
23.3353	152
23.3427	153
23.3501	155
23.3575	162
23.3649	158
23.3723	175
23.3797	165
23.3871	209
23.3945	229
23.4019	260
23.4093	299
23.4167	297
23.4241	393
23.4315	473
23.4389	596
23.4463	677
23.4536	764
23.4610	800
23.4684	838
23.4758	838
23.4832	851
23.4906	804
23.4980	762
23.5054	712
23.5128	711
23.5202	616
23.5276	538
23.5350	505
23.5424	472
23.5498	398
23.5572	340
23.5646	295
23.5720	280
23.5794	212
23.5868	203
23.5942	190
23.6016	174
23.6089	163
23.6163	139
23.6237	150
23.6311	144
23.6385	135
23.6459	131
23.6533	150
23.6607	111
23.6681	136
23.6755	158
23.6829	144
23.6903	148
23.6977	139
23.7051	128
23.7125	137
23.7199	123
23.7273	126
23.7347	140
23.7421	150
23.7495	162
23.7569	111
23.7643	150
23.7716	131
23.7790	131
23.7864	158
23.7938	129
23.8012	133
23.8086	136
23.8160	124
23.8234	128
23.8308	148
23.8382	120
23.8456	153
23.8530	157
23.8604	153
23.8678	163
23.8752	149
23.8826	157
23.8900	180
23.8974	232
23.9048	250
23.9122	279
23.9196	279
23.9269	316
23.9343	362
23.9417	380
23.9491	448
23.9565	489
23.9639	505
23.9713	533
23.9787	565
23.9861	571
23.9935	580
24.0009	515
24.0083	511
24.0157	522
24.0231	521
24.0305	460
24.0379	446
24.0453	406
24.0527	389
24.0601	352
24.0675	334
24.0749	271
24.0822	275
24.0896	276
24.0970	262
24.1044	201
24.1118	207
24.1192	198
24.1266	182
24.1340	148
24.1414	168
24.1488	180
24.1562	155
24.1636	139
24.1710	168
24.1784	141
24.1858	171
24.1932	163
24.2006	181
24.2080	159
24.2154	187
24.2228	207
24.2302	232
24.2375	264
24.2449	327
24.2523	402
24.2597	422
24.2671	504
24.2745	525
24.2819	533
24.2893	499
24.2967	533
24.3041	456
24.3115	442
24.3189	438
24.3263	480
24.3337	518
24.3411	543
24.3485	553
24.3559	628
24.3633	637
24.3707	624
24.3781	657
24.3855	602
24.3928	601
24.4002	587
24.4076	557
24.4150	521
24.4224	498
24.4298	496
24.4372	477
24.4446	466
24.4520	423
24.4594	379
24.4668	320
24.4742	304
24.4816	258
24.4890	228
24.4964	212
24.5038	210
24.5112	213
24.5186	146
24.5260	155
24.5334	137
24.5408	138
24.5481	121
24.5555	125
24.5629	149
24.5703	136
24.5777	137
24.5851	150
24.5925	140
24.5999	159
24.6073	121
24.6147	148
24.6221	128
24.6295	139
24.6369	132
24.6443	121
24.6517	146
24.6591	138
24.6665	139
24.6739	142
24.6813	135
24.6887	160
24.6961	144
24.7034	146
24.7108	184
24.7182	174
24.7256	171
24.7330	217
24.7404	224
24.7478	245
24.7552	266
24.7626	317
24.7700	313
24.7774	291
24.7848	294
24.7922	290
24.7996	283
24.8070	285
24.8144	242
24.8218	275
24.8292	231
24.8366	225
24.8440	219
24.8514	236
24.8587	219
24.8661	191
24.8735	162
24.8809	171
24.8883	157
24.8957	164
24.9031	152
24.9105	149
24.9179	142
24.9253	122
24.9327	139
24.9401	135
24.9475	141
24.9549	152
24.9623	125
24.9697	126
24.9771	142
24.9845	127
24.9919	132
24.9993	127
25.0067	131
25.0140	131
25.0214	121
25.0288	126
25.0362	141
25.0436	136
25.0510	138
25.0584	137
25.0658	163
25.0732	133
25.0806	151
25.0880	126
25.0954	131
25.1028	144
25.1102	144
25.1176	145
25.1250	135
25.1324	117
25.1398	143
25.1472	152
25.1546	137
25.1620	154
25.1693	135
25.1767	140
25.1841	166
25.1915	131
25.1989	147
25.2063	157
25.2137	128
25.2211	139
25.2285	123
25.2359	123
25.2433	140
25.2507	140
25.2581	141
25.2655	144
25.2729	155
25.2803	167
25.2877	155
25.2951	155
25.3025	153
25.3099	146
25.3173	187
25.3247	184
25.3320	148
25.3394	170
25.3468	194
25.3542	206
25.3616	217
25.3690	249
25.3764	263
25.3838	294
25.3912	329
25.3986	384
25.4060	454
25.4134	593
25.4208	648
25.4282	860
25.4356	978
25.4430	1260
25.4504	1422
25.4578	1656
25.4652	1921
25.4726	1922
25.4800	1925
25.4873	1887
25.4947	1830
25.5021	1690
25.5095	1505
25.5169	1438
25.5243	1431
25.5317	1394
25.5391	1382
25.5465	1338
25.5539	1305
25.5613	1332
25.5687	1265
25.5761	1269
25.5835	1425
25.5909	1508
25.5983	1652
25.6057	1711
25.6131	1675
25.6205	1530
25.6279	1312
25.6353	1190
25.6426	1178
25.6500	1086
25.6574	1047
25.6648	996
25.6722	976
25.6796	942
25.6870	811
25.6944	660
25.7018	578
25.7092	490
25.7166	379
25.7240	353
25.7314	294
25.7388	257
25.7462	238
25.7536	247
25.7610	203
25.7684	225
25.7758	204
25.7832	215
25.7906	219
25.7979	241
25.8053	254
25.8127	229
25.8201	248
25.8275	274
25.8349	252
25.8423	248
25.8497	259
25.8571	248
25.8645	250
25.8719	239
25.8793	229
25.8867	221
25.8941	208
25.9015	224
25.9089	223
25.9163	172
25.9237	163
25.9311	174
25.9385	199
25.9459	195
25.9532	153
25.9606	149
25.9680	157
25.9754	165
25.9828	172
25.9902	157
25.9976	145
26.0050	169
26.0124	143
26.0198	156
26.0272	126
26.0346	161
26.0420	125
26.0494	139
26.0568	147
26.0642	142
26.0716	121
26.0790	125
26.0864	141
26.0938	138
26.1012	139
26.1085	131
26.1159	110
26.1233	136
26.1307	149
26.1381	134
26.1455	138
26.1529	143
26.1603	137
26.1677	145
26.1751	91
26.1825	141
26.1899	124
26.1973	140
26.2047	131
26.2121	143
26.2195	132
26.2269	129
26.2343	145
26.2417	143
26.2491	150
26.2565	143
26.2638	131
26.2712	154
26.2786	145
26.2860	159
26.2934	126
26.3008	134
26.3082	142
26.3156	138
26.3230	130
26.3304	135
26.3378	153
26.3452	171
26.3526	174
26.3600	175
26.3674	189
26.3748	214
26.3822	208
26.3896	213
26.3970	227
26.4044	220
26.4118	256
26.4191	285
26.4265	331
26.4339	409
26.4413	485
26.4487	559
26.4561	669
26.4635	813
26.4709	948
26.4783	1091
26.4857	1275
26.4931	1313
26.5005	1458
26.5079	1558
26.5153	1574
26.5227	1574
26.5301	1630
26.5375	1599
26.5449	1567
26.5523	1491
26.5597	1401
26.5671	1299
26.5744	1202
26.5818	1127
26.5892	1089
26.5966	870
26.6040	887
26.6114	783
26.6188	616
26.6262	592
26.6336	504
26.6410	459
26.6484	352
26.6558	308
26.6632	280
26.6706	239
26.6780	245
26.6854	244
26.6928	188
26.7002	203
26.7076	180
26.7150	174
26.7224	172
26.7297	147
26.7371	152
26.7445	139
26.7519	155
26.7593	155
26.7667	166
26.7741	149
26.7815	157
26.7889	139
26.7963	143
26.8037	138
26.8111	138
26.8185	151
26.8259	135
26.8333	151
26.8407	157
26.8481	146
26.8555	137
26.8629	125
26.8703	139
26.8777	112
26.8850	136
26.8924	139
26.8998	119
26.9072	157
26.9146	120
26.9220	141
26.9294	138
26.9368	129
26.9442	121
26.9516	115
26.9590	133
26.9664	142
26.9738	122
26.9812	132
26.9886	130
26.9960	158
27.0034	125
27.0108	130
27.0182	167
27.0256	122
27.0330	129
27.0404	136
27.0477	132
27.0551	125
27.0625	121
27.0699	118
27.0773	137
27.0847	131
27.0921	132
27.0995	118
27.1069	134
27.1143	133
27.1217	141
27.1291	132
27.1365	143
27.1439	148
27.1513	153
27.1587	146
27.1661	126
27.1735	135
27.1809	126
27.1883	124
27.1957	143
27.2030	131
27.2104	136
27.2178	145
27.2252	128
27.2326	142
27.2400	136
27.2474	124
27.2548	144
27.2622	142
27.2696	140
27.2770	143
27.2844	157
27.2918	144
27.2992	161
27.3066	160
27.3140	178
27.3214	183
27.3288	210
27.3362	244
27.3436	238
27.3510	287
27.3583	302
27.3657	360
27.3731	384
27.3805	470
27.3879	495
27.3953	586
27.4027	727
27.4101	852
27.4175	1046
27.4249	1278
27.4323	1429
27.4397	1702
27.4471	1885
27.4545	1957
27.4619	2021
27.4693	1981
27.4767	1940
27.4841	1742
27.4915	1709
27.4989	1556
27.5063	1518
27.5136	1319
27.5210	1322
27.5284	1219
27.5358	1208
27.5432	1086
27.5506	967
27.5580	768
27.5654	709
27.5728	613
27.5802	477
27.5876	428
27.5950	374
27.6024	308
27.6098	285
27.6172	272
27.6246	255
27.6320	250
27.6394	223
27.6468	207
27.6542	211
27.6616	227
27.6689	204
27.6763	202
27.6837	175
27.6911	155
27.6985	176
27.7059	180
27.7133	146
27.7207	173
27.7281	155
27.7355	161
27.7429	134
27.7503	151
27.7577	142
27.7651	140
27.7725	133
27.7799	133
27.7873	119
27.7947	133
27.8021	116
27.8095	125
27.8169	124
27.8242	152
27.8316	139
27.8390	114
27.8464	130
27.8538	136
27.8612	115
27.8686	131
27.8760	103
27.8834	124
27.8908	112
27.8982	128
27.9056	122
27.9130	136
27.9204	128
27.9278	109
27.9352	100
27.9426	124
27.9500	120
27.9574	116
27.9648	118
27.9722	126
27.9795	128
27.9869	104
27.9943	126
28.0017	111
28.0091	99
28.0165	105
28.0239	119
28.0313	101
28.0387	127
28.0461	129
28.0535	112
28.0609	118
28.0683	109
28.0757	133
28.0831	117
28.0905	111
28.0979	104
28.1053	94
28.1127	122
28.1201	122
28.1275	105
28.1348	116
28.1422	103
28.1496	94
28.1570	122
28.1644	96
28.1718	115
28.1792	112
28.1866	115
28.1940	117
28.2014	134
28.2088	124
28.2162	110
28.2236	110
28.2310	123
28.2384	118
28.2458	116
28.2532	116
28.2606	114
28.2680	124
28.2754	122
28.2828	112
28.2901	143
28.2975	125
28.3049	147
28.3123	128
28.3197	138
28.3271	160
28.3345	137
28.3419	153
28.3493	168
28.3567	183
28.3641	206
28.3715	247
28.3789	259
28.3863	305
28.3937	321
28.4011	381
28.4085	435
28.4159	494
28.4233	436
28.4307	464
28.4381	497
28.4454	528
28.4528	443
28.4602	478
28.4676	478
28.4750	447
28.4824	413
28.4898	432
28.4972	393
28.5046	369
28.5120	325
28.5194	326
28.5268	272
28.5342	264
28.5416	266
28.5490	233
28.5564	226
28.5638	202
28.5712	187
28.5786	178
28.5860	129
28.5934	145
28.6008	134
28.6081	127
28.6155	125
28.6229	120
28.6303	119
28.6377	138
28.6451	103
28.6525	103
28.6599	99
28.6673	104
28.6747	116
28.6821	114
28.6895	107
28.6969	111
28.7043	122
28.7117	124
28.7191	118
28.7265	113
28.7339	99
28.7413	85
28.7487	101
28.7561	117
28.7634	113
28.7708	107
28.7782	114
28.7856	117
28.7930	110
28.8004	126
28.8078	123
28.8152	115
28.8226	120
28.8300	105
28.8374	120
28.8448	130
28.8522	128
28.8596	125
28.8670	113
28.8744	140
28.8818	157
28.8892	145
28.8966	130
28.9040	188
28.9114	169
28.9187	175
28.9261	179
28.9335	184
28.9409	187
28.9483	212
28.9557	235
28.9631	240
28.9705	300
28.9779	328
28.9853	339
28.9927	375
29.0001	427
29.0075	390
29.0149	391
29.0223	388
29.0297	314
29.0371	319
29.0445	319
29.0519	303
29.0593	296
29.0667	296
29.0740	283
29.0814	274
29.0888	257
29.0962	242
29.1036	184
29.1110	187
29.1184	173
29.1258	170
29.1332	131
29.1406	139
29.1480	128
29.1554	114
29.1628	124
29.1702	119
29.1776	90
29.1850	100
29.1924	112
29.1998	98
29.2072	118
29.2146	97
29.2220	101
29.2293	87
29.2367	98
29.2441	105
29.2515	105
29.2589	90
29.2663	86
29.2737	121
29.2811	105
29.2885	93
29.2959	107
29.3033	108
29.3107	110
29.3181	124
29.3255	98
29.3329	122
29.3403	102
29.3477	87
29.3551	86
29.3625	99
29.3699	113
29.3773	87
29.3846	102
29.3920	115
29.3994	97
29.4068	96
29.4142	100
29.4216	100
29.4290	104
29.4364	117
29.4438	90
29.4512	89
29.4586	79
29.4660	92
29.4734	80
29.4808	83
29.4882	107
29.4956	93
29.5030	108
29.5104	108
29.5178	103
29.5252	103
29.5326	102
29.5399	119
29.5473	104
29.5547	121
29.5621	92
29.5695	117
29.5769	114
29.5843	101
29.5917	94
29.5991	123
29.6065	117
29.6139	96
29.6213	96
29.6287	115
29.6361	97
29.6435	102
29.6509	106
29.6583	108
29.6657	86
29.6731	96
29.6805	100
29.6879	91
29.6952	89
29.7026	89
29.7100	102
29.7174	89
29.7248	95
29.7322	83
29.7396	88
29.7470	103
29.7544	75
29.7618	121
29.7692	93
29.7766	84
29.7840	94
29.7914	85
29.7988	96
29.8062	79
29.8136	90
29.8210	97
29.8284	100
29.8358	97
29.8432	85
29.8505	106
29.8579	90
29.8653	89
29.8727	90
29.8801	93
29.8875	82
29.8949	92
29.9023	94
29.9097	96
29.9171	83
29.9245	94
29.9319	94
29.9393	98
29.9467	81
29.9541	94
29.9615	80
29.9689	95
29.9763	83
29.9837	80
29.9911	95
29.9985	98
30.0058	86
30.0132	93
30.0206	94
30.0280	82
30.0354	98
30.0428	93
30.0502	80
30.0576	91
30.0650	87
30.0724	85
30.0798	91
30.0872	78
30.0946	101
30.1020	86
30.1094	100
30.1168	89
30.1242	87
30.1316	97
30.1390	80
30.1464	89
30.1538	94
30.1612	72
30.1685	80
30.1759	103
30.1833	102
30.1907	83
30.1981	87
30.2055	88
30.2129	86
30.2203	101
30.2277	92
30.2351	90
30.2425	73
30.2499	85
30.2573	92
30.2647	86
30.2721	96
30.2795	88
30.2869	86
30.2943	102
30.3017	77
30.3091	82
30.3165	78
30.3238	80
30.3312	88
30.3386	74
30.3460	95
30.3534	90
30.3608	114
30.3682	83
30.3756	96
30.3830	105
30.3904	88
30.3978	95
30.4052	106
30.4126	115
30.4200	111
30.4274	107
30.4348	119
30.4422	122
30.4496	131
30.4570	180
30.4644	205
30.4718	188
30.4791	210
30.4865	227
30.4939	231
30.5013	253
30.5087	218
30.5161	249
30.5235	217
30.5309	236
30.5383	208
30.5457	201
30.5531	175
30.5605	171
30.5679	173
30.5753	206
30.5827	174
30.5901	158
30.5975	161
30.6049	160
30.6123	139
30.6197	128
30.6271	131
30.6344	133
30.6418	130
30.6492	106
30.6566	127
30.6640	104
30.6714	107
30.6788	99
30.6862	102
30.6936	86
30.7010	110
30.7084	86
30.7158	99
30.7232	87
30.7306	96
30.7380	81
30.7454	83
30.7528	100
30.7602	89
30.7676	94
30.7750	87
30.7824	100
30.7897	83
30.7971	94
30.8045	83
30.8119	91
30.8193	87
30.8267	85
30.8341	83
30.8415	83
30.8489	101
30.8563	83
30.8637	109
30.8711	90
30.8785	81
30.8859	84
30.8933	74
30.9007	86
30.9081	91
30.9155	93
30.9229	83
30.9303	84
30.9377	91
30.9450	75
30.9524	106
30.9598	77
30.9672	84
30.9746	97
30.9820	79
30.9894	72
30.9968	76
31.0042	74
31.0116	72
31.0190	82
31.0264	94
31.0338	78
31.0412	66
31.0486	66
31.0560	83
31.0634	83
31.0708	78
31.0782	63
31.0856	81
31.0930	84
31.1003	93
31.1077	77
31.1151	98
31.1225	74
31.1299	80
31.1373	83
31.1447	97
31.1521	82
31.1595	90
31.1669	89
31.1743	79
31.1817	72
31.1891	80
31.1965	78
31.2039	88
31.2113	89
31.2187	77
31.2261	99
31.2335	99
31.2409	79
31.2483	109
31.2556	81
31.2630	103
31.2704	99
31.2778	93
31.2852	99
31.2926	95
31.3000	98
31.3074	102
31.3148	84
31.3222	108
31.3296	119
31.3370	155
31.3444	134
31.3518	143
31.3592	136
31.3666	160
31.3740	169
31.3814	178
31.3888	185
31.3962	186
31.4036	189
31.4109	250
31.4183	247
31.4257	205
31.4331	250
31.4405	250
31.4479	236
31.4553	231
31.4627	245
31.4701	260
31.4775	229
31.4849	224
31.4923	216
31.4997	223
31.5071	224
31.5145	182
31.5219	181
31.5293	185
31.5367	161
31.5441	185
31.5515	162
31.5589	168
31.5662	173
31.5736	175
31.5810	161
31.5884	136
31.5958	147
31.6032	147
31.6106	138
31.6180	130
31.6254	118
31.6328	136
31.6402	136
31.6476	130
31.6550	114
31.6624	145
31.6698	148
31.6772	125
31.6846	143
31.6920	120
31.6994	112
31.7068	122
31.7142	105
31.7215	97
31.7289	129
31.7363	97
31.7437	91
31.7511	104
31.7585	109
31.7659	99
31.7733	85
31.7807	83
31.7881	80
31.7955	94
31.8029	107
31.8103	103
31.8177	95
31.8251	103
31.8325	102
31.8399	115
31.8473	108
31.8547	104
31.8621	119
31.8695	126
31.8769	132
31.8842	122
31.8916	130
31.8990	160
31.9064	149
31.9138	141
31.9212	136
31.9286	142
31.9360	120
31.9434	117
31.9508	128
31.9582	148
31.9656	121
31.9730	129
31.9804	140
31.9878	141
31.9952	141
32.0026	129
32.0100	141
32.0174	123
32.0248	105
32.0322	118
32.0395	117
32.0469	124
32.0543	94
32.0617	115
32.0691	81
32.0765	113
32.0839	97
32.0913	99
32.0987	105
32.1061	85
32.1135	84
32.1209	92
32.1283	86
32.1357	96
32.1431	82
32.1505	71
32.1579	91
32.1653	105
32.1727	89
32.1801	86
32.1875	90
32.1948	86
32.2022	95
32.2096	87
32.2170	88
32.2244	68
32.2318	82
32.2392	91
32.2466	74
32.2540	82
32.2614	69
32.2688	87
32.2762	86
32.2836	80
32.2910	72
32.2984	88
32.3058	92
32.3132	89
32.3206	86
32.3280	79
32.3354	82
32.3428	76
32.3501	81
32.3575	67
32.3649	72
32.3723	85
32.3797	72
32.3871	75
32.3945	68
32.4019	78
32.4093	91
32.4167	89
32.4241	72
32.4315	89
32.4389	85
32.4463	82
32.4537	71
32.4611	97
32.4685	76
32.4759	79
32.4833	77
32.4907	84
32.4981	98
32.5054	79
32.5128	78
32.5202	77
32.5276	79
32.5350	80
32.5424	91
32.5498	81
32.5572	90
32.5646	81
32.5720	93
32.5794	84
32.5868	91
32.5942	71
32.6016	83
32.6090	81
32.6164	80
32.6238	90
32.6312	64
32.6386	79
32.6460	85
32.6534	98
32.6607	93
32.6681	73
32.6755	76
32.6829	90
32.6903	74
32.6977	81
32.7051	86
32.7125	79
32.7199	80
32.7273	94
32.7347	89
32.7421	82
32.7495	89
32.7569	71
32.7643	75
32.7717	98
32.7791	75
32.7865	68
32.7939	91
32.8013	83
32.8087	89
32.8160	82
32.8234	80
32.8308	89
32.8382	88
32.8456	100
32.8530	96
32.8604	95
32.8678	107
32.8752	93
32.8826	110
32.8900	103
32.8974	103
32.9048	97
32.9122	87
32.9196	87
32.9270	109
32.9344	101
32.9418	106
32.9492	74
32.9566	84
32.9640	81
32.9713	104
32.9787	87
32.9861	83
32.9935	88
33.0009	79
33.0083	90
33.0157	78
33.0231	81
33.0305	75
33.0379	81
33.0453	87
33.0527	82
33.0601	84
33.0675	82
33.0749	94
33.0823	84
33.0897	78
33.0971	68
33.1045	83
33.1119	77
33.1193	87
33.1266	86
33.1340	93
33.1414	106
33.1488	81
33.1562	79
33.1636	82
33.1710	78
33.1784	72
33.1858	97
33.1932	84
33.2006	98
33.2080	76
33.2154	80
33.2228	101
33.2302	79
33.2376	103
33.2450	98
33.2524	121
33.2598	121
33.2672	113
33.2746	123
33.2819	139
33.2893	121
33.2967	122
33.3041	140
33.3115	154
33.3189	161
33.3263	161
33.3337	121
33.3411	118
33.3485	134
33.3559	119
33.3633	134
33.3707	126
33.3781	155
33.3855	115
33.3929	132
33.4003	134
33.4077	126
33.4151	116
33.4225	117
33.4299	128
33.4373	131
33.4446	133
33.4520	140
33.4594	152
33.4668	148
33.4742	159
33.4816	201
33.4890	236
33.4964	240
33.5038	269
33.5112	348
33.5186	309
33.5260	349
33.5334	346
33.5408	368
33.5482	404
33.5556	349
33.5630	353
33.5704	368
33.5778	339
33.5852	316
33.5926	330
33.5999	309
33.6073	302
33.6147	324
33.6221	281
33.6295	274
33.6369	278
33.6443	265
33.6517	213
33.6591	210
33.6665	190
33.6739	198
33.6813	149
33.6887	158
33.6961	147
33.7035	154
33.7109	139
33.7183	110
33.7257	118
33.7331	95
33.7405	97
33.7479	104
33.7552	99
33.7626	88
33.7700	88
33.7774	84
33.7848	101
33.7922	87
33.7996	97
33.8070	111
33.8144	105
33.8218	85
33.8292	86
33.8366	76
33.8440	79
33.8514	101
33.8588	82
33.8662	88
33.8736	90
33.8810	90
33.8884	90
33.8958	105
33.9032	82
33.9105	112
33.9179	84
33.9253	105
33.9327	106
33.9401	92
33.9475	130
33.9549	105
33.9623	127
33.9697	127
33.9771	114
33.9845	96
33.9919	105
33.9993	114
34.0067	102
34.0141	119
34.0215	134
34.0289	109
34.0363	107
34.0437	155
34.0511	154
34.0585	178
34.0658	162
34.0732	170
34.0806	153
34.0880	149
34.0954	150
34.1028	152
34.1102	121
34.1176	127
34.1250	137
34.1324	134
34.1398	133
34.1472	112
34.1546	111
34.1620	138
34.1694	115
34.1768	126
34.1842	107
34.1916	115
34.1990	108
34.2064	91
34.2138	84
34.2211	112
34.2285	80
34.2359	76
34.2433	80
34.2507	77
34.2581	92
34.2655	97
34.2729	88
34.2803	98
34.2877	91
34.2951	97
34.3025	78
34.3099	94
34.3173	82
34.3247	82
34.3321	98
34.3395	91
34.3469	88
34.3543	87
34.3617	100
34.3691	81
34.3764	78
34.3838	90
34.3912	80
34.3986	93
34.4060	88
34.4134	92
34.4208	88
34.4282	98
34.4356	82
34.4430	77
34.4504	64
34.4578	89
34.4652	74
34.4726	77
34.4800	69
34.4874	81
34.4948	87
34.5022	99
34.5096	90
34.5170	72
34.5244	79
34.5317	67
34.5391	85
34.5465	78
34.5539	75
34.5613	73
34.5687	83
34.5761	90
34.5835	82
34.5909	83
34.5983	61
34.6057	76
34.6131	76
34.6205	80
34.6279	74
34.6353	87
34.6427	64
34.6501	79
34.6575	92
34.6649	75
34.6723	75
34.6797	91
34.6870	86
34.6944	73
34.7018	82
34.7092	82
34.7166	81
34.7240	79
34.7314	71
34.7388	80
34.7462	82
34.7536	72
34.7610	90
34.7684	85
34.7758	99
34.7832	98
34.7906	75
34.7980	100
34.8054	92
34.8128	83
34.8202	89
34.8276	75
34.8350	81
34.8423	77
34.8497	92
34.8571	76
34.8645	66
34.8719	87
34.8793	98
34.8867	85
34.8941	87
34.9015	94
34.9089	83
34.9163	114
34.9237	122
34.9311	86
34.9385	104
34.9459	148
34.9533	124
34.9607	162
34.9681	161
34.9755	153
34.9829	143
34.9903	124
34.9977	138
35.0050	126
35.0124	128
35.0198	104
35.0272	98
35.0346	116
35.0420	120
35.0494	137
35.0568	116
35.0642	138
35.0716	130
35.0790	121
35.0864	116
35.0938	135
35.1012	110
35.1086	103
35.1160	118
35.1234	114
35.1308	118
35.1382	95
35.1456	118
35.1530	116
35.1603	115
35.1677	148
35.1751	126
35.1825	137
35.1899	114
35.1973	135
35.2047	136
35.2121	109
35.2195	129
35.2269	121
35.2343	109
35.2417	107
35.2491	112
35.2565	105
35.2639	114
35.2713	88
35.2787	117
35.2861	93
35.2935	93
35.3009	84
35.3083	116
35.3156	97
35.3230	111
35.3304	95
35.3378	92
35.3452	88
35.3526	82
35.3600	93
35.3674	97
35.3748	90
35.3822	82
35.3896	84
35.3970	88
35.4044	105
35.4118	121
35.4192	106
35.4266	128
35.4340	133
35.4414	142
35.4488	146
35.4562	207
35.4636	189
35.4709	219
35.4783	221
35.4857	221
35.4931	248
35.5005	254
35.5079	208
35.5153	204
35.5227	181
35.5301	150
35.5375	156
35.5449	164
35.5523	129
35.5597	160
35.5671	167
35.5745	148
35.5819	157
35.5893	159
35.5967	136
35.6041	142
35.6115	130
35.6189	112
35.6262	99
35.6336	101
35.6410	86
35.6484	106
35.6558	95
35.6632	91
35.6706	75
35.6780	91
35.6854	93
35.6928	92
35.7002	72
35.7076	78
35.7150	99
35.7224	83
35.7298	92
35.7372	100
35.7446	91
35.7520	80
35.7594	69
35.7668	89
35.7742	78
35.7815	75
35.7889	90
35.7963	98
35.8037	105
35.8111	74
35.8185	89
35.8259	99
35.8333	101
35.8407	88
35.8481	98
35.8555	117
35.8629	118
35.8703	100
35.8777	107
35.8851	114
35.8925	110
35.8999	129
35.9073	109
35.9147	99
35.9221	110
35.9295	109
35.9368	128
35.9442	134
35.9516	125
35.9590	149
35.9664	133
35.9738	143
35.9812	196
35.9886	221
35.9960	213
36.0034	271
36.0108	330
36.0182	366
36.0256	364
36.0330	437
36.0404	446
36.0478	482
36.0552	450
36.0626	419
36.0700	399
36.0774	418
36.0848	369
36.0921	346
36.0995	360
36.1069	292
36.1143	333
36.1217	359
36.1291	331
36.1365	341
36.1439	295
36.1513	316
36.1587	292
36.1661	288
36.1735	266
36.1809	240
36.1883	224
36.1957	231
36.2031	202
36.2105	174
36.2179	183
36.2253	184
36.2327	186
36.2401	166
36.2474	164
36.2548	148
36.2622	141
36.2696	166
36.2770	146
36.2844	149
36.2918	153
36.2992	151
36.3066	174
36.3140	165
36.3214	200
36.3288	184
36.3362	165
36.3436	198
36.3510	178
36.3584	153
36.3658	154
36.3732	155
36.3806	134
36.3880	157
36.3954	134
36.4027	128
36.4101	142
36.4175	116
36.4249	136
36.4323	150
36.4397	120
36.4471	102
36.4545	103
36.4619	116
36.4693	102
36.4767	102
36.4841	88
36.4915	102
36.4989	73
36.5063	88
36.5137	81
36.5211	88
36.5285	99
36.5359	98
36.5433	83
36.5507	95
36.5580	98
36.5654	103
36.5728	94
36.5802	83
36.5876	90
36.5950	81
36.6024	79
36.6098	84
36.6172	84
36.6246	89
36.6320	69
36.6394	73
36.6468	80
36.6542	89
36.6616	78
36.6690	99
36.6764	69
36.6838	74
36.6912	68
36.6986	73
36.7060	68
36.7134	89
36.7207	86
36.7281	80
36.7355	90
36.7429	83
36.7503	102
36.7577	72
36.7651	72
36.7725	77
36.7799	84
36.7873	73
36.7947	87
36.8021	89
36.8095	75
36.8169	87
36.8243	82
36.8317	83
36.8391	98
36.8465	87
36.8539	82
36.8613	76
36.8687	80
36.8760	80
36.8834	79
36.8908	85
36.8982	88
36.9056	71
36.9130	75
36.9204	70
36.9278	66
36.9352	80
36.9426	98
36.9500	87
36.9574	100
36.9648	78
36.9722	90
36.9796	89
36.9870	92
36.9944	79
37.0018	100
37.0092	72
37.0166	89
37.0240	81
37.0313	67
37.0387	85
37.0461	74
37.0535	92
37.0609	94
37.0683	82
37.0757	81
37.0831	118
37.0905	88
37.0979	79
37.1053	99
37.1127	84
37.1201	95
37.1275	92
37.1349	114
37.1423	108
37.1497	93
37.1571	127
37.1645	124
37.1719	125
37.1793	90
37.1866	108
37.1940	98
37.2014	117
37.2088	101
37.2162	115
37.2236	101
37.2310	81
37.2384	101
37.2458	107
37.2532	90
37.2606	122
37.2680	75
37.2754	120
37.2828	95
37.2902	90
37.2976	84
37.3050	95
37.3124	74
37.3198	101
37.3272	84
37.3346	79
37.3419	86
37.3493	92
37.3567	70
37.3641	78
37.3715	78
37.3789	102
37.3863	74
37.3937	96
37.4011	95
37.4085	94
37.4159	107
37.4233	88
37.4307	79
37.4381	88
37.4455	101
37.4529	79
37.4603	85
37.4677	99
37.4751	79
37.4825	86
37.4899	103
37.4972	117
37.5046	92
37.5120	87
37.5194	114
37.5268	93
37.5342	81
37.5416	111
37.5490	106
37.5564	110
37.5638	98
37.5712	103
37.5786	110
37.5860	109
37.5934	125
37.6008	143
37.6082	111
37.6156	134
37.6230	150
37.6304	162
37.6378	161
37.6452	180
37.6525	178
37.6599	181
37.6673	168
37.6747	178
37.6821	206
37.6895	188
37.6969	185
37.7043	201
37.7117	188
37.7191	189
37.7265	161
37.7339	176
37.7413	171
37.7487	164
37.7561	135
37.7635	140
37.7709	158
37.7783	162
37.7857	136
37.7931	137
37.8005	121
37.8078	141
37.8152	120
37.8226	132
37.8300	112
37.8374	103
37.8448	97
37.8522	102
37.8596	94
37.8670	101
37.8744	107
37.8818	91
37.8892	98
37.8966	89
37.9040	92
37.9114	76
37.9188	110
37.9262	75
37.9336	94
37.9410	79
37.9484	92
37.9558	84
37.9631	95
37.9705	86
37.9779	95
37.9853	80
37.9927	93
38.0001	77
38.0075	90
38.0149	83
38.0223	97
38.0297	85
38.0371	94
38.0445	81
38.0519	90
38.0593	77
38.0667	97
38.0741	89
38.0815	97
38.0889	88
38.0963	84
38.1037	84
38.1111	83
38.1184	91
38.1258	59
38.1332	88
38.1406	78
38.1480	75
38.1554	78
38.1628	92
38.1702	75
38.1776	89
38.1850	99
38.1924	69
38.1998	77
38.2072	102
38.2146	99
38.2220	82
38.2294	99
38.2368	95
38.2442	79
38.2516	93
38.2590	98
38.2664	111
38.2738	113
38.2811	116
38.2885	105
38.2959	105
38.3033	115
38.3107	117
38.3181	105
38.3255	114
38.3329	97
38.3403	121
38.3477	85
38.3551	121
38.3625	113
38.3699	101
38.3773	127
38.3847	87
38.3921	103
38.3995	84
38.4069	121
38.4143	94
38.4217	100
38.4291	90
38.4364	96
38.4438	104
38.4512	107
38.4586	91
38.4660	93
38.4734	101
38.4808	116
38.4882	115
38.4956	146
38.5030	128
38.5104	122
38.5178	111
38.5252	117
38.5326	116
38.5400	121
38.5474	124
38.5548	100
38.5622	83
38.5696	102
38.5770	106
38.5844	110
38.5917	111
38.5991	116
38.6065	114
38.6139	101
38.6213	116
38.6287	77
38.6361	101
38.6435	84
38.6509	103
38.6583	83
38.6657	98
38.6731	88
38.6805	77
38.6879	79
38.6953	81
38.7027	100
38.7101	102
38.7175	86
38.7249	91
38.7323	87
38.7397	108
38.7470	104
38.7544	97
38.7618	75
38.7692	94
38.7766	105
38.7840	88
38.7914	109
38.7988	94
38.8062	97
38.8136	119
38.8210	121
38.8284	84
38.8358	95
38.8432	120
38.8506	99
38.8580	98
38.8654	95
38.8728	90
38.8802	86
38.8876	86
38.8950	90
38.9023	104
38.9097	76
38.9171	95
38.9245	99
38.9319	96
38.9393	115
38.9467	90
38.9541	89
38.9615	92
38.9689	94
38.9763	105
38.9837	87
38.9911	95
38.9985	93
39.0059	80
39.0133	93
39.0207	95
39.0281	104
39.0355	86
39.0429	111
39.0503	94
39.0576	101
39.0650	116
39.0724	98
39.0798	98
39.0872	116
39.0946	107
39.1020	96
39.1094	105
39.1168	116
39.1242	112
39.1316	107
39.1390	96
39.1464	131
39.1538	120
39.1612	130
39.1686	138
39.1760	148
39.1834	120
39.1908	138
39.1982	163
39.2056	212
39.2129	205
39.2203	236
39.2277	276
39.2351	313
39.2425	360
39.2499	375
39.2573	447
39.2647	478
39.2721	494
39.2795	554
39.2869	573
39.2943	538
39.3017	474
39.3091	479
39.3165	490
39.3239	407
39.3313	412
39.3387	395
39.3461	416
39.3535	461
39.3609	380
39.3682	425
39.3756	430
39.3830	457
39.3904	454
39.3978	430
39.4052	406
39.4126	326
39.4200	309
39.4274	322
39.4348	296
39.4422	302
39.4496	259
39.4570	290
39.4644	280
39.4718	254
39.4792	233
39.4866	252
39.4940	232
39.5014	227
39.5088	233
39.5162	244
39.5235	209
39.5309	200
39.5383	190
39.5457	192
39.5531	185
39.5605	180
39.5679	187
39.5753	173
39.5827	165
39.5901	150
39.5975	161
39.6049	142
39.6123	151
39.6197	116
39.6271	124
39.6345	112
39.6419	133
39.6493	113
39.6567	113
39.6641	123
39.6715	92
39.6788	100
39.6862	119
39.6936	96
39.7010	105
39.7084	110
39.7158	102
39.7232	111
39.7306	98
39.7380	109
39.7454	106
39.7528	100
39.7602	114
39.7676	86
39.7750	111
39.7824	100
39.7898	101
39.7972	120
39.8046	105
39.8120	116
39.8194	108
39.8268	131
39.8342	106
39.8415	134
39.8489	103
39.8563	87
39.8637	94
39.8711	93
39.8785	94
39.8859	89
39.8933	104
39.9007	94
39.9081	88
39.9155	114
39.9229	89
39.9303	91
39.9377	95
39.9451	82
39.9525	102
39.9599	106
39.9673	95
39.9747	87
39.9821	103
39.9895	106
39.9968	98
