##TITLE= flavia
##JCAMP-DX=4.24
##DATA TYPE=INFRARED SPECTRUM
##ORIGIN= Exported PE Spectrum Data File
##XUNITS=1/CM
##YUNITS=ABSORBANCE
##RESOLUTION=8
##FIRSTX=3030
##LASTX=600
##DELTAX=-2
##MAXY=0.080943212
##MINY=-0.0027331114
##XFACTOR=1
##YFACTOR=7.5384241e-011
##NPOINTS=1216
##FIRSTY=-0.0027331114
##XYDATA=(X++(Y..Y))
3030-36255739-35560486-34153573-32098355-29048463-24211591-17798156-10421676
3014-2874360+4095711+9751676+13565412+15301197+15003358+12879103+9571945
2998+5807775+2451645+0-1347858-1372072+0+1102254+3528054+7089316+11681622
2978+17508967+24479607+32822864+42711105+54557089+68288024+83546573+99899396
2962+116778810+133088961+147686479+159589392+168743884+175260700+180457059
2948+186655998+195812096+209199877+227605324+251311450+279875526+312506823
2934+347785309+383843428+418943197+451242483+478187201+497269468+506332267
2920+504211669+492293041+472940461+448549633+421592313+394751990+370199913
2906+348405695+329178042+311919151+296300152+281938305+268956982+257003564
2892+245728524+234844103+224337601+214694544+206435149+199782410+194976720
2878+192266301+191757154+192998543+195165025+197769567+201349781+207403259
2864+218099573+234931572+257730000+283985271+309275940+328130468+335774790
2850+330051889+311489986+283645502+251642052+220052943+192100926+168747516
2836+149888295+134757934+122450268+112193620+103102457+95162495+88448109
2822+82649302+77557362+72875018+68540547+64639392+61473543+58655616+55910408
2806+53119340+50424760+47956288+45702906+43662982+41694244+39869384+38338656
2790+36939206+35859165+34744359+33558367+32326516+31176919+30204410+29361597
2774+28648431+27984311+27413466+26994432+26588073+26230711+25707332+25171277
2758+24707989+24537227+24613157+24619532+24026548+23011368+21996162+21273532
2742+20963611+20969961+20917826+20713856+20369169+20293289+20312290+20154204
2726+19739913+19159605+18732664+18517649+18231448+17782368+17251082+16824141
2710+16492106+16160046+15828010+15777432+15785363+15663648+15402749+15152945
2694+15102366+15216248+15364945+15149905+14724570+14394092+14074707+13720508
2678+13518119+13235106+13360058+13590985+14019557+14343785+14622128+14489319
2662+13878965+12988686+12109502+11464334+11076951+10700613+10265765+9750293
2646+9479905+9524233+9766205+9986038+9785255+9095809+8183416+7248860+6431348
2628+5998082+6241635+6554793+6902716+6656074+6176948+5593477+5009982+4461276
2610+3669066+2935342+2538471+2408825+2628658+2581266+2627151+2579759+2556064
2592+2660483+2973616+3147589+3017968+2424984+1936395+1669170+1621779+1493714
2574+1191700+657251-74891-735848-1177022-1235482-770539+64440+761867+1109790
2554+1203140+1481483+1679177+1633367+1309214+694116+148573-117044+0+238686
2534+559602+682849+712796+742768+728437+793173+835771+1074457+1210355+1264022
2514+1085230+1336591+1564208+1630526+1429595+880766+482165+409324+358622+274736
2494+258823+475370+1085675+1996437+3324677+4641847+5204711+4992735+3588392
2476+1812431+385950+0+714007+2202878+3332781+3154903+2260671+1077027+574971
2456+710202+1215469+1975335+2722551+3540927+4161634+4562532+4419444+3756090
2438+3174967+2870556+2936207+3337105+3668424+3688215+3475548+2997212+2485669
2420+1891894+1356630+1017454+1117895+1518768+1666650+1397054+768489+280666+0
2400+175827+917804+1718266+2460243+3053548+3540927+3855913+3905256+3423239
2382+2847947+2459230+2219185+2083485+1890857+2205867+3098047+2976806+2855565
2364+2734324+2613083+2491842+2370601+2249360+2128119+2006878+1885637+1764396
2346+1643155+1521914+1400673+1279432+1158191+1036950+915709+794468+673227
2328+551986+430745+2961237+5273475+6511998+6896563+6911117+6603049+6617602
2310+6088145+5871820+6499915+7819087+9728079+11105737+11721205+11620295
2294+11196813+10806515+10544331+11425442+12907494+14054273+14312355+13493510
2278+12386882+11813146+12393800+13932780+15196580+16077716+15606769+14175963
2262+12387747+11062892+10372136+9774705+9259479+8465960+7844784+8033262+9248064
2244+11444863+14198325+17182639+20144839+21467149+20602469+18292405+16977038
2228+17269885+18392944+19563469+19266470+18714899+18740497+19425545+20317726
2212+20714967+21526499+22211548+22400025+21940172+21423365+20893908+21289568
2196+21719993+21989145+23148575+25117684+26103165+25782471+24813396+22954043
2180+21490005+20890992+21865404+24943018+28289488+30687119+31535047+30252864
2164+30082399+30849653+30250640+27070831+22703448+18963839+16841981+16592423
2148+17241075+18052632+17444106+16142972+14634655+12723118+11780926+11656320
2132+12409342+13670004+14653903+15522389+16506288+17871295+19732871+21433125
2116+22706438+23391461+23394945+23501192+24001222+23623575+22529598+21688613
2100+21160737+21440958+21525066+21090515+20227391+19941487+20038246+20987381
2084+21798913+22240432+22209101+22350163+22584500+22633819+22428564+22120496
2068+22897263+24077251+25027967+25088355+23809359+22335832+22027789+23266287
2052+24596528+26331572+28123544+29524946+31122412+32604463+32618992+30484483
2036+26306838+22859804+21281908+21701289+21957765+22018177+20003827+16999548
2020+12453472+8600005+7098038+8032916+10360992+12540397+14822614+15449127
2004+15210664+14119825+12915129+13034052+14557194+16967501+17823310+18010232
1988+18163920+17936526+18517180+18958699+19088667+17444378+13913508+11707813
1972+10435143+10667899+10718823+8663358+6759727+4936720+3445823+2359728+2341073
1954+1977658+970656+0+1031983+3923664+6829554+9231015+9941983+9629813+8457411
1934+6731509+5421529+4168453+3271182+2650673+2591521+3027357+3507447+3657033
1916+3713344+3263597+3424277+4868994+7211920+9199067+9589019+8715493+7438697
1898+6391197+5976264+6446865+7399805+8064913+7857113+7016796+6038876+5383577
1880+5359214+5369641+5345303+5482239+5228604+4952806+4503058+4203564+3960975
1862+4270302+4223801+3671265+3291122+3462848+4195979+4723509+4941094+4251005
1844+2664263+815041+0+145361+716107+1332712+2074244+2518482+2469336+1880973
1824+1360584+852845+365664-39286-42572+0-175455-535906-768291-1048117-959462
1802-1055850-1013055-821637-228554+113116-660091-2295139-3539567-3566376
1784-2513094-1839363-1796592-1260414+0+691349+1278328+2292274+5033035+10828999
1764+20475565+34665365+55688203+84230386+119146989+160664195+208916394
1750+261469881+311507431+347701794+364206674+363310342+348646728+323520866
1736+290040702+249972610+208195049+173870441+150444536+135274889+124879354
1722+117229052+111601279+107268661+103951274+102150406+102171261+103085581
1708+103764254+103609578+102219863+99971471+98439434+98672190+100740875
1694+105308126+111965930+119178789+127193396+137024980+148477429+160111758
1680+170164732+179400145+189636557+200432768+211961122+224830490+238035105
1666+250727362+263514500+276709627+289074518+299502273+308997029+318904518
1652+328609594+335038101+337967043+339618275+339865263+338475548+336728446
1638+334932323+331956483+326950208+320288253+312762879+304459477+294941594
1624+283690546+272044134+260683972+249100839+235974303+222099785+209074456
1610+197435951+186502755+175670765+165180349+155445820+146312207+137822181
1596+130045371+122431440+114861787+107798168+101819359+96713434+92047150
1582+88437212+85847248+83684250+81309351+79158979+78107674+78229735+79487209
1566+81729868+84552884+88019487+92784408+98196103+103329480+108254118+113148710
1550+118108113+122835081+126611655+129146864+130236715+129280291+126517935
1536+123540539+121053363+118327402+115221916+112078478+109116871+106167939
1522+102539025+98483144+94047738+89280248+84563336+80218067+74960356+66274266
1506+54378025+43933468+37518180+33068542+28573045+23278963+17787211+12875817
1490+8296483+3979679+967493+0+1441949+5259119+11258535+20631007+38360919
1472+65697591+96834235+125613078+149410676+168162143+181889669+191148258
1458+197852959+202188814+202062058+198421555+193832214+189489589+185512233
1444+182354019+179779350+177520927+174873515+171571398+168183911+165247087
1430+163113591+161440295+160277751+159879003+160781759+162789833+164908603
1416+165618384+164030456+160872292+157144789+153284453+149754621+146650172
1402+143945857+141388558+138587730+135486445+132494273+130580635+130544016
1388+132969569+138066031+145003240+152609313+159997160+166322335+170798905
1374+173423758+174520972+174935040+175202042+175125890+174512126+173164564
1360+171205017+169258121+167837817+166759135+165814818+165066590+164452777
1346+164107844+164289453+164924911+165731155+165912764+164872034+162642076
1332+159445909+155515993+151222366+146868696+142798040+138752685+135124808
1318+131618745+128201189+124721959+121378727+118180979+115509871+113238798
1304+111260275+109050874+106416088+103295876+99849855+96329511+93090647
1290+90495396+88799985+87710184+86911352+85845271+84622686+83240334+81957608
1274+80842505+80129066+79803109+79806025+80269115+80928293+81829419+82999424
1258+84436629+86046202+88033719+90302717+93352955+97051498+100998315+104620953
1242+107182552+108181721+107324379+104534621+99912072+93670264+86128532
1228+77524129+68198628+58862058+50009431+42100825+35675530+30934379+28056065
1212+26520371+25756329+25150423+24206106+22366792+19611824+16081991+12000265
1196+8076675+4467824+1727087+0-597603+601212+3840026+9533054+18162660+29950232
1176+45134606+64025628+86945944+114474330+146977711+183657402+223264182
1162+263516155+302033431+337324691+368555031+393736685+411264579+420438220
1148+421641780+415501525+403231935+385631645+364101637+340507960+317255856
1134+297188651+282453728+274055297+271536346+273139989+276400941+279345574
1120+281134235+282005710+282980023+285103932+289568247+297032394+307009364
1106+317664686+326941066+333271380+336152808+336714338+337470374+341390702
1092+350738244+366917290+389978347+418974231+451964619+485864337+515842243
1078+536222902+541155298+527846807+498435323+460688513+425759680+402846035
1064+395997332+404288528+423282338+449189835+479917352+513576654+548028215
1050+581390222+611189484+636658946+657842933+675258550+689530482+701865204
1036+714106626+728868728+748115555+772033756+799908459+830582112+862645876
1022+894257372+923348187+948414353+968511900+983324655+993711196+1001401526
1008+1008079689+1015150128+1023730662+1034537844+1046771408+1058636418
996+1068205398+1073741823+1073512724+1066339893+1051329863+1028552116+997654109
982+959096113+914530548+865739600+814565451+762875830+712139815+663404165
968+617352077+574059453+534174651+497389355+463512123+432032225+402948082
954+376416295+353135727+333963520+319370919+309511365+304452756+303508835
940+305567909+309459773+314155015+318500729+321595590+322671060+322109876
926+319775944+315934979+309187483+299003751+285257175+268412724+250559368
912+233077679+216505221+201196266+187116024+174256589+161996537+150164982
898+139016574+128050021+117417184+106115384+93602265+80415489+67304668+55413022
882+45211846+37999431+34857475+36083174+41056686+49773266+61157593+74339971
866+88371487+101477910+111840682+118295973+120521088+119493355+116382977
852+112126166+107182996+102228758+97429492+92709294+87315487+80681849+72705640
836+64307208+55956267+47967407+40188867+32669670+26001291+19854710+14163560
820+8992675+4780141+2177378+0-2726997-5392323-7918439-9702950-10043682-8972265
800-7382113-5425136-3563040-2214885-1597267-1140996+0+915555+3445626+6643077
780+11059754+16890162+24947070+35217975+47106507+58810021+68600193+75063095
764+78507188+79060663+77646832+73954367+66800215+55635746+43792974+33534622
748+26016759+21067116+18016582+16528427+17186271+19468069+22456831+25872460
732+30142021+36380469+44946573+55324911+65622699+75302077+83117137+88583784
716+92492796+96428790+100907090+105904075+109626586+111482999+110040704
702+105307706+98588428+91311029+85806232+81392569+76392323+69155941+61230088
686+57229258+56514387+55361579+51495065+45762553+41175040+40411147+41717247
670+41013544+36027431+28463709+23971077+25136438+28487330+31234046+29888213
654+24418305+18853415+15632095+13068718+10827838+7326717+3518714+687989-449005
636+0-2391404-4453986-6968737-12094404-16854680-20696287-19978747-12395059
618+113067+14688026+25114990+25234778+18059674+10543095+5003113+2388736+248668
600+0
##END=
