##TITLE= flavia
##JCAMP-DX=4.24
##DATA TYPE=INFRARED SPECTRUM
##ORIGIN= Exported PE Spectrum Data File
##XUNITS=1/CM
##YUNITS=ABSORBANCE
##RESOLUTION=8
##FIRSTX=3030
##LASTX=600
##DELTAX=-2
##MAXY=0.083602421
##MINY=-0.0015524328
##XFACTOR=1
##YFACTOR=7.7860822e-011
##NPOINTS=1216
##FIRSTY=-3.124401e-005
##XYDATA=(X++(Y..Y))
3030-401280+0+1457709+3857017+7644994+13136988+20186114+28452430+37066295
3012+44997309+51075746+54092070+53695670+50246296+44406991+37166771+29513164
2996+22525568+16995537+13135888+11185466+11150347+12883646+16040827+20384577
2980+25982262+33060478+41783048+52505178+65491692+81329080+99956053+120643827
2964+142764669+164807428+185430898+203410234+217613937+228072725+235447966
2950+241840269+249364022+260367866+277061115+301000828+332338629+370379393
2936+413979399+461278460+510201971+558110392+601892617+637990423+663204047
2922+674948874+672098191+655732876+628503186+594102029+556710672+519712892
2908+485305563+454220721+426171869+401137713+378917639+358966590+340837474
2894+323979158+307776135+292020179+277149151+264018957+253295583+245288303
2880+240269621+238705025+240344930+244293667+249496315+255086345+262077291
2866+272906594+290640937+317073234+351739550+390844375+427623549+453706765
2852+462614593+451872847+423295780+382536171+336583195+291662128+252309535
2838+220364192+195206021+175458579+159684251+146630610+135184578+124892938
2824+115677655+107431530+100090259+93534396+87704278+82630502+78313067+74517698
2808+71082152+67822677+64785205+62001865+59506387+57186980+54867574+52825264
2792+51035603+49247473+47379728+45570140+43956550+42607833+41292799+40115537
2776+39030162+38015215+36988020+35835254+34775907+33966122+33500824+32920673
2760+32112419+31088286+30143768+29439602+28997270+28659050+28296334+27878475
2744+27471358+27234187+27124095+26934364+26755373+26553418+26443325+26253594
2728+25766861+24950952+24419819+24366352+24518070+24407977+23991674+23403868
2712+22918666+22661593+22358587+21816713+21138598+20382400+19773159+19505368
2696+19759667+20263528+20745930+21182425+21392323+21328162+21129245+20725189
2680+20207836+19678234+18990909+18814981+19115212+19824235+20543950+20877864
2664+20486057+19492546+18420926+17609610+17320384+17178139+16991470+16599663
2648+16039440+15580266+15167001+14697110+14103204+13350068+12495858+11721287
2632+11093698+10703422+10314653+9890694+9547881+9474534+9436377+9160931+8646640
2614+7818482+7033170+6442325+5895882+5236140+4781536+4720437+4614938+4488004
2596+4302866+4028950+3980100+4292579+4661683+4634268+3763240+2879964+2301345
2578+2094796+1990828+1874611+1308240+584194+5598-312717+33420+999660+1976617
2558+2751475+3007281+2711931+2460981+2300364+2038673+1496823+593643-40070
2540-301761+0+253964+587519+660818+452403-13228-455919-584719-353721+316689
2518+1267260+2015755+1966570+1758155+1597179+1209630+754715+143632-63275+111073
2498+680435+1597346+2188118+2261418+1909083+1399050+1404959+1534908+1620455
2480+1200755+387549+0+258533+1066739+2289838+3277154+3367295+2883266+2005755
2460+1218601+812656+711415+800001+1203984+1225228+1113245+1056381+886242+818661
2440+481613+536539+660340+883659+1051883+1331851+1611819+1656029+1194965+409318
2420-601369-1016501-995257-142674+697659+1179751+1167287+562304-33467+0+294178
2398+958872+1409218+1859563+1997574+1898270+1789782+1921587+2053391+2185196
2380+2317000+2448805+2580609+2712414+2844218+2976023+3107828+3239632+3371436
2362+3503241+3635046+3766850+3898655+4030459+4162264+4294068+4425873+4557678
2344+4689482+4821286+4953091+5084896+5216700+5348505+5480309+5612114+5743918
2326+5875723+6007528+6139332+6271136+6402941+6534746+6666550+6798355+6930159
2308+7061964+7193768+7325573+7457377+7589182+7720987+7852791+7984595+8116400
2290+8248205+8380009+8511814+8643619+8775422+8907227+9039032+9170836+8881681
2272+9410110+10299869+10548116+9765961+8232082+6655310+6332472+6873150+7772095
2254+8536308+8449253+8406599+8521643+9409871+10611965+11690044+11906138
2238+11594018+10419914+9391259+9046987+10034733+11337877+12293472+13270501
2222+14373077+15261304+15622849+14862129+13922276+13285572+13691517+14804810
2206+15625672+16368449+17425093+18178588+18596782+18486761+17827091+17997254
2190+19548429+20739806+20046453+18489584+15801265+14728210+15346972+17501383
2174+19903849+21892907+23219017+23300378+21619494+20757724+20995253+20044683
2158+17815680+14478193+10437951+7731259+6895518+7021280+7549710+7139602+6783081
2140+7054293+6924369+5572662+3294665+1298383+1177645+2800780+5789617+8531954
2122+10514887+12275817+13710632+15001527+16113289+16730520+17226798+18237510
2106+18632738+18724817+18705128+18146508+17633819+16651097+15601008+15201617
2090+15976547+17132710+18099021+18391692+18506737+18185430+18545444+18234855
2074+17599682+16941543+16719755+17540616+18741180+19269609+19194803+18256481
2058+17945892+18697856+20918102+22086513+22267393+21430121+20470364+20035759
2042+20576438+21406485+21118862+20393357+18828833+16537057+15030713+14317456
2026+15136787+14692996+12514518+7835826+4065050+3532458+5801698+9389178
2010+11583397+12614013+11767554+9837107+8456310+8704557+9433555+10620338
1994+12365958+14302983+16452801+17729917+18024095+17500689+16576147+14667135
1978+11787434+7837524+6692510+6538088+7714155+7918000+4696874+1823296+688999
1960+1572634+3371840+4645894+4404203+2923887+798996+0+352765+1275107+2474546
1940+2571624+2501841+3156224+4211744+5267288+5229633+3800273+1957503+884855
1922+880908+1157120+796412+281092+0+1000617+2991803+5163678+6788942+7221537
1902+6172070+4341740+2802335+2432633+3221964+4902370+6506199+7084245+6925828
1884+6478066+5975186+5582518+5134756+4285833+3671186+2712027+1886094+1315847
1866+1336564+1913079+3014721+3603484+3367008+3364759+4143373+5076599+5386710
1848+5206883+4102274+2207663+380396+0+591083+1670598+2629134+3064050+2776307
1828+2064486+1374075+1063366+818493+608858+319584+488096+555558+299991+0
1808-229657+243438+995186+1523401+1305991+675196+35214-1007434-2829391-4527332
1788-4978994-3927158-2161850-1287617-1449909-1154415+0+1129800+2852094+6295320
1768+12335217+22182850+36934433+58315512+89703574+131583941+181634046+239566029
1752+306864989+381165493+452442160+504086071+527105405+524151854+500694399
1738+461707490+410995705+351732996+291896116+243702942+210079299+186883679
1724+170123064+157173271+146961007+139567394+135693702+135298570+136315071
1710+136700754+135180296+131455116+125643084+118838951+113472479+111529426
1696+113262462+118022395+124302668+130030206+135521984+143175614+154283283
1682+167163939+178384930+187609399+196887480+206906592+218689480+232892944
1668+247900237+261987365+275924425+290493836+303596495+312983280+320422539
1654+329461775+340061157+348562968+353479069+356276189+356658810+354303926
1640+350402675+345660875+341425830+338343694+333405919+325015588+314746674
1626+303459609+291119153+278792500+266949661+254927689+242326953+229703276
1612+217762450+206628466+195946167+185328174+175216935+165914119+157017032
1598+148713995+141347940+134233003+127113472+120520601+114996430+110077027
1584+105450056+101400269+97825133+94724625+92072692+90285830+89857015+90535129
1568+92076783+94485015+97148933+99397911+102401723+108355881+116866879
1554+124767009+131065654+136407365+140452296+142173084+142029045+141349112
1540+140471697+139477922+137854859+135195295+131442557+126982471+122139597
1526+116906327+111559760+106122836+101664281+97925322+93875535+89075554
1512+83422775+75997034+65303994+52870167+43294823+37585371+32580229+26867739
1496+21239433+16027598+10886192+5885643+2005803+0-386662+1226256+4929044
1478+10467568+20115446+41429996+77030807+118056150+154815971+183915942
1464+205343766+219221977+226715635+231741279+235424139+234561341+229007387
1450+221564062+214114660+208324924+204274419+200367882+196083173+191455460
1436+186641006+182255200+178238427+174057830+170267605+167438931+165874909
1422+165979691+167848297+170583433+171779906+169966322+165889789+160798214
1408+155875055+152265495+149886951+148051932+145838695+142633381+138944206
1394+135682243+133410873+133158919+135774680+141869002+150578319+160077709
1380+168869703+175490707+178867404+179517241+178535021+177122574+175794287
1366+174538008+173257231+171797274+170194975+168427275+166419247+164388254
1352+162583808+161123898+159927330+159004773+158354792+157980353+157736102
1338+157337214+156163564+153953436+150982374+147640748+144312950+141046394
1324+138004855+135131780+132518937+129765285+126869245+123617951+120461631
1310+117554873+115029300+112907974+110857029+108651495+106031044+103139549
1296+100070499+97085657+94455973+92464786+91600409+91870593+92864966+93943499
1280+94548984+94502239+94016033+93209884+92487944+92203837+92431151+93215722
1264+94286647+95642350+97203166+99025840+101278742+104032250+107445692
1250+111708822+116647196+121949961+126889818+130768701+132842469+132460374
1236+129645480+124925952+118617139+111020756+102430670+92932715+83053528
1222+73520311+65162993+58724089+54373497+51909214+50700350+49930946+49137046
1206+47986362+46374877+44195371+41956106+39681674+38070189+37133853+37180502
1190+38435107+41243782+45834606+52382072+61223107+72588855+86793132+104220331
1174+125119917+149616002+177967286+210087983+245351985+282877358+320499139
1160+355939213+387493467+413947725+434012933+446808639+452563066+452132026
1146+446268751+435755706+420487201+400894945+378170196+354621692+333273363
1132+316931587+306831880+303144283+304146312+307477028+310973147+313296477
1118+314391852+315049393+316310122+319731219+326413466+336194522+347537304
1104+357857340+365170334+368828745+369989955+370999639+374589152+382828435
1090+397245577+418097748+444587220+474826297+505621147+533193075+552681076
1076+558753914+548453686+523312931+490164704+459333013+439185032+433782605
1062+442487377+461369031+486918483+516992205+550098902+584095190+616459372
1048+644507459+667255078+685294699+699336685+710664156+720454399+730566211
1034+743132307+760280805+781919939+807676131+836232433+865617228+894524238
1020+921249493+944467194+963474394+977684796+987614461+994700858+1000836470
1006+1007887749+1017325849+1029510664+1043304714+1056559737+1067204309
994+1073635510+1073741823+1066352085+1050795789+1027166138+995069747+955233963
980+909462179+859943900+808700216+757900443+708728183+662161829+618665193
966+578331768+541138539+506549589+474522143+444973477+417895888+393601807
952+371942673+353442061+338609907+327879404+321549205+318942534+319021287
938+320879176+323338770+325622245+327126459+327387409+326610350+324859539
924+321648053+316208929+307433633+295299151+280003087+263105538+245973690
910+229189439+213444728+198702906+185110907+172333382+160030533+147984901
896+135848889+124317692+112830847+100560150+88064387+75775270+64897833+55447342
880+48509265+45106445+45880346+50814079+59232543+70141988+82016046+93896228
864+105160878+114638833+121350170+124359365+124219226+121799296+117513056
850+112060152+106496964+101249221+96834373+92757840+88186824+82390963+75188014
834+66966960+58000234+48589550+40016353+32471978+26187711+20630694+16071879
818+12041326+9140644+6409958+3682334+1320584+0-1562729-1190252+177459+1365989
798+2188645+2449403+2305962+1695453+619599+0-961024-574815+1051644+4181601
778+9663165+17436816+27144094+37564941+47076340+54692196+60666856+63816716
762+64042164+62203845+58300130+51559272+41721184+31371627+23113589+18087610
746+15777629+14954399+14350111+15702416+19057439+24133368+30115587+37033377
730+45364236+55733027+67360346+79140675+89423726+96353765+99569365+100907987
714+102110344+104839069+108694747+111392946+112174168+109414152+103904264
700+97507990+91763945+86658256+80079786+71771223+62320396+53483619+48183581
684+45820013+46100674+45877523+43638066+39769566+35446246+32765845+32043665
668+32080793+30372613+28116315+28164160+29371111+29140304+24598139+15256113
652+5303100+0-3041155-6503256-8454300-9093133-6956257-3070819+0-3582001
632-9113037-14961001-18694577-19938560-18912083-17989717-15674091-10968485
616-2951205+7053384+12855226+14126672+11141878+5130091+1868080-366591+0
##END=
