##TITLE= flavia
##JCAMP-DX=4.24
##DATA TYPE=INFRARED SPECTRUM
##ORIGIN= Exported PE Spectrum Data File
##XUNITS=1/CM
##YUNITS=ABSORBANCE
##RESOLUTION=8
##FIRSTX=3030
##LASTX=600
##DELTAX=-2
##MAXY=0.053561796
##MINY=0
##XFACTOR=1
##YFACTOR=4.9883309e-011
##NPOINTS=1216
##FIRSTY=1.272437e-005
##XYDATA=(X++(Y..Y))
3030+255083+0+1429700+4352965+8385117+14035102+20954087+29251930+37752938
3012+45517864+51578923+55398348+56304694+54297876+49397093+42627478+35195938
2996+28407207+22395184+17214763+13375036+11413625+11387960+13011193+15970341
2980+20389598+26517572+34531033+44652303+57093992+71939821+88723715+107099220
2964+126937231+147905637+168742569+187909085+203490919+214983924+222588729
2950+227983040+233742948+242351509+256329812+277415308+306700062+343808937
2936+386784606+433414298+481551855+529560440+574930689+613819900+641991024
2922+656449688+656280613+642652466+618755396+587705802+553131307+518119524
2908+485416176+455807647+429358347+405611869+384166733+364344283+346063156
2894+328840768+312323305+296527587+281613711+268492101+257664700+249391938
2880+244113568+241882108+242563825+245570726+249817951+254590905+260718874
2866+270206812+286355075+311450556+345151611+384040822+421964569+451203918
2852+464857269+459461744+435899315+398693692+354961625+310890212+271877947
2838+239817483+214400579+194100121+178149069+165168473+153791428+143441952
2824+133764028+124630941+116817042+110465630+105266131+100903012+97036992
2810+93419478+89945379+86578791+83267205+80151533+77284442+74469885+71868054
2794+69462150+67371729+65548923+63936453+62235530+60185734+58064208+56155408
2778+54755595+53656925+52417221+51072406+49921128+49207210+48899514+48785426
2762+48494463+47730359+46421353+45076537+43963491+43041668+42153297+41303124
2746+40644175+40546778+41099434+41862352+42343315+42265041+41572631+40844336
2730+40027658+39509668+38747954+38406802+38204295+37896599+37450336+36898884
2714+36538653+36565524+36539860+36303857+35401149+34393253+33457089+32872180
2698+32547796+32364367+32408006+33046656+33845460+34132815+33863395+33469668
2682+32934984+32560375+32305293+31772959+31274122+30899513+30890577+30917447
2666+30858326+30376178+29705277+29101251+28690832+28753552+29270364+29698715
2650+29481867+28528938+27420708+26539472+26303506+26330379+25798083+24551212
2634+23215955+21584333+20146316+19214894+18735174+19077495+19785485+19743055
2618+18288311+16553928+15221061+14619464+14560304+14866816+15331014+15795251
2602+16065878+15920724+15529387+14650577+13738272+13294398+13794443+14275407
2586+14443275+13354165+11954349+10119633+8354182+6815797+5745768+5165677
2570+5053943+5362844+5860499+6618676+7725721+9043103+10150147+10788836+10591070
2552+9886712+9029372+8100376+7049465+6034438+5437581+5187278+5632359+6373807
2534+6995730+7701332+7991078+7516137+6708981+5538620+4819885+5004519+5729202
2516+6332044+6499912+6232881+5757902+5524328+5675467+5599616+5576303+5553028
2498+5651592+6287891+7308905+8274991+8877796+8993126+8640026+7749266+6404414
2480+5164749+4082771+3696252+4025653+5155624+7119623+8980900+9711781+8843911
2462+6673620+4974112+4106242+3745038+3902377+4528108+5223143+6059174+7189146
2444+8596367+9814760+10579098+10736435+10270046+9438022+8761333+8294980+7878775
2426+8088688+8298601+8004274+7590459+7365472+7367476+7732722+8011939+7648308
2408+6974009+6072719+5293270+4532940+4205156+4845376+5574053+6718513+7776941
2390+8833017+9960748+10200163+10439580+10678995+10918411+11157826+11397242
2374+11636657+11876073+12115490+12354905+12594321+12833736+13073152+13134209
2358+13195265+13256320+13317377+13378433+13439489+13500545+13561602+13622658
2342+13683713+13744770+13805826+13866882+13927938+13988995+14050051+14111107
2326+14172163+14233219+14294276+14355331+14416388+14477444+14538500+14599556
2310+14660613+14721669+14782724+14843781+14904837+14965893+15026949+15088006
2294+15149062+15210117+15271174+15332230+15393286+15454342+15515399+15576455
2278+15637510+15698567+15759623+15820679+15881735+15942792+16003848+16064904
2262+16125960+16187016+16248073+16309128+16370185+16431241+15358036+16674560
2246+19914841+23415645+25912710+27073899+27630513+27647005+28201192+28442323
2230+27660670+26169222+23169831+20830055+19269301+19701613+22354049+26148755
2214+29565880+30535926+30621719+29737269+28539799+26857170+25088507+24691606
2198+26146736+28225594+28918387+29699639+31831072+33305320+32193880+29834945
2182+26316979+25415840+26211393+29920067+35019623+40030720+44370292+45758543
2166+45168034+44732864+43360939+38172525+30161804+21343340+13973113+11776682
2150+13678698+14870989+15494481+14578964+14129490+15046921+15529418+15651095
2134+15617403+15478558+16362572+18403192+20876359+22486861+23664778+25186819
2118+26849856+28926362+30797311+32061257+32460147+32856612+33341498+34208781
2102+35525303+36805980+36963506+35472056+32544358+30622790+30622554+31731166
2086+32596060+32545639+32908648+32509319+33218878+34466099+36492380+37842397
2070+37686825+36960101+36560810+36352665+36352427+34829949+32872495+32683468
2054+35400428+40335051+45967489+49088282+49503900+49553847+50681581+51235806
2038+49483871+45930056+42067998+39312368+36924756+32235841+26373516+18890931
2022+13454021+10660151+11419858+14371016+17599349+19845489+18619304+14960378
2006+11373106+10443252+13031166+18037482+21179784+23339929+24618216+25827201
1990+27349279+29925206+32223922+34591977+35648016+35423140+32397502+27768293
1974+25851467+24711312+25506905+25542513+22296979+18967839+15000596+11293836
1958+8433090+7178228+8551209+12012804+16542663+21215906+24005980+24485188
1942+23826871+21646236+19537332+17394971+16337525+16231243+17071306+18033210
1926+18306900+18078740+17936573+17259137+15910178+15768011+16796866+19312154
1910+21777220+23859959+24996352+25095553+24659484+23637921+21837258+19952993
1894+19000733+19083205+19371233+19195648+18845571+18858778+19459864+20937958
1878+22451934+23000447+22963429+21473475+19952451+18911735+18858026+19284662
1862+19608498+19138973+17806741+16577233+16141162+16586916+16805603+16577442
1846+15469849+13724151+12152944+12113575+13125664+14054149+14566815+14424648
1830+13885819+12969406+12411421+12305138+12645742+12952851+12724690+12632746
1814+12215757+11798805+11620830+11961395+12285270+12420354+12070278+11531447
1798+11355862+12215005+12605795+11292681+9288889+8303174+8284715+9334443
1782+9695957+8989246+8504746+8383527+8290314+8474275+10641778+15966156+25097429
1764+38618657+57743919+86033925+124975058+173112046+230229754+296846770
1750+369799029+440222957+492563510+518153055+519400511+500511787+465649923
1736+418583503+362079908+304197457+257343707+225351930+203944433+188260399
1722+175580260+164745075+155417811+148255672+145349674+146393991+148088314
1708+147586417+144047159+137558943+129285574+121542686+116959111+116789419
1694+120247360+125514388+130590226+135319558+141422966+149433433+159599467
1680+169760702+179018625+188271769+197109113+206472148+217816335+230599178
1666+243436929+256707264+270374319+282922946+292498671+300243874+308478998
1652+316563510+322174674+325149891+327441674+328744058+328160918+326081824
1638+322853217+319158606+316128386+312022755+305797366+297657833+287804821
1624+276795164+266014906+255511879+244557186+232864038+221579558+211905779
1610+203677825+195404409+186516861+177442931+168818220+160678669+153251276
1596+146588607+140105124+133714888+127714174+122492495+117715350+112954923
1582+109059600+105584838+102236761+98695123+95609883+93738689+93203373+93614393
1566+95239386+97287403+98914813+100558923+103029920+107862011+114495984
1552+121187265+126898789+131095194+132765592+132108398+130141604+128495048
1538+127871273+127899932+127223620+125436067+122374725+118450725+113838463
1524+108628733+103423820+99714889+97540195+95437148+92612439+88590458+82319664
1508+71902677+58969266+49541636+45027327+41564547+37348991+32383012+27123132
1492+21829795+16660723+12557450+10325398+9993395+11580372+15038495+19899447
1476+28003309+46007956+77342702+115328163+151444783+180980042+202662530
1462+217130342+225293941+230613721+233765968+232755267+227918554+221633645
1448+215456295+210430791+206982494+203983528+200948697+197072669+192355463
1434+187604782+183320068+179322181+175649283+172815192+170927466+170628914
1420+171938635+173838683+174864059+173478165+170266491+165608993+160487898
1406+155976203+152501656+149827688+147067680+143468837+139566531+136273606
1392+134369142+134371709+136534612+141694251+149554359+158891331+168419485
1378+176133826+180483363+181857608+181759814+181234234+181012154+180575014
1364+179418537+177831865+176140100+174641886+173540373+172295475+171014749
1350+169877352+169010036+168501203+168188312+167966232+167584057+166860090
1336+165686884+163885189+161543389+158683011+155392447+152068464+148830503
1322+145489792+142505155+139451206+136306418+133037390+129983450+127199545
1308+124934227+123060830+121352280+119445426+116912455+113949317+110467609
1294+106969173+104135045+102371577+101932029+102634797+103770112+104403567
1280+104212526+103182706+102243706+101534124+101077847+100870115+100681464
1266+100636227+100932735+101602046+102507934+103538062+104907564+106549509
1252+108927500+112399994+116630052+121670193+126607621+130596313+132644508
1238+132190630+129308753+124519799+118292254+110920012+102472368+92939780
1224+82893384+73109834+64368254+57691429+53105651+50147297+48132899+46319204
1208+44983499+43972807+42780488+40911866+38577242+35709665+33018964+30758421
1192+29353415+29019023+30486511+34097578+39892931+48054144+58624239+71725093
1176+87650609+106926615+129792045+156765469+188269883+223421095+261019368
1162+298663083+333962441+365751256+393319749+414959203+428717256+434268862
1148+432756291+425529760+414023237+398456470+378908395+356253628+332504312
1134+310626218+293448770+282217051+277282377+277158278+279911453+283792540
1120+287011719+288737296+289557152+290656630+293658341+299716558+308836080
1106+319358375+329170929+336600852+340317045+341206224+341763188+344626311
1092+352653712+367279211+388689285+415488274+445941174+477244867+505422750
1078+525781291+532697377+523241234+498595794+465124960+432676906+410069935
1064+402133718+408961421+426526366+451327513+481436287+514950511+549884179
1050+583450941+613072240+637567498+657025099+671894428+683296137+693414543
1036+704596394+718880232+738313934+762343076+790265292+820969117+852920398
1022+884522849+913408064+938813785+959719656+975649966+987178332+995760195
1008+1002917685+1010648643+1020434947+1032747155+1046397631+1058999076
996+1068646699+1073741823+1073135047+1065844030+1051257065+1028757670+997996789
982+959483443+915041243+867224624+818112753+769619905+722928864+678778141
968+637206047+598121621+562473713+529664805+499092753+470030957+442388717
954+416739577+394201871+375638378+361025164+349896186+342344722+338277532
940+337496229+339083218+341387062+343485423+344661373+344520564+343478776
926+341211078+338494104+333537885+325897999+314336512+299099551+282440681
912+266352889+250962983+236655659+223113039+210440294+198544240+187584955
898+177416681+167571044+157899841+147867793+136480740+124023008+110915326
884+98357298+87170995+78231064+73449321+73081470+77254169+85150123+95333081
868+106983344+119240541+130929041+139850203+145397021+147292271+146671110
854+144682995+140830874+135038266+128435519+122040690+116790558+111874909
840+106758604+100428289+93199433+85074416+77028252+68365539+58938096+50158279
824+43729994+39956731+37538463+34754487+31659919+26682218+21360388+17135461
808+14865360+13102934+13462618+14718388+15536907+15332607+14889330+15017207
792+15180855+15179685+14999282+13824589+13624994+14985839+18150955+23748924
776+31789158+42190553+53856055+65160703+73956175+79131085+80396334+79489372
760+77972941+75321448+69233405+59111438+47302372+37373978+31716090+29375266
744+28298552+26535978+27617297+32381163+40211171+48559686+54967710+60436631
728+67673903+78134965+91026495+104403072+114233306+119044973+121108403
714+121171685+121122573+121436696+121772411+122033960+121977679+121505654
700+119480199+116030530+112487584+107180985+100280497+90782263+81080889
686+73654654+68821232+66090876+64175355+64119070+64841926+64238385+60867498
670+55957679+49417966+43067049+41706028+46269155+55368131+65575878+69300197
654+62882437+47261625+32092483+22276480+21151970+23679096+23281076+21265185
638+17478555+16017090+13438411+13729763+13454815+9095763+2655152+0+2160296
620+10436145+20941494+27869365+31544921+28767968+24373144+19438382+15108082
604+12116048+6280347+0
##END=
