##TITLE= Carolina Isabel
##JCAMP-DX=4.24
##DATA TYPE=INFRARED SPECTRUM
##ORIGIN= Exported PE Spectrum Data File
##XUNITS=1/CM
##YUNITS=ABSORBANCE
##RESOLUTION=8
##FIRSTX=3030
##LASTX=600
##DELTAX=-2
##MAXY=0.031179652
##MINY=-0.0010712147
##XFACTOR=1
##YFACTOR=2.9038313e-011
##NPOINTS=1216
##FIRSTY=-0.0010712147
##XYDATA=(X++(Y..Y))
3030-36889700-34694742-32167324-29373002-27087729-25040625-22008199-16405891
3014-8385660+1309572+9785549+14792532+16810964+17092879+15884526+12910985
2998+8714081+4250272+0-2903752-3718001-3489454-2755963-1661275+0+1350753
2978+4548928+9241348+14861552+21315119+28043803+36866095+49013633+62725332
2962+77767065+91536173+103667354+114181006+123713505+130782859+135031977
2948+138464087+144909445+155694106+171396783+191405859+215943016+245726735
2934+280551627+318163978+356388074+391738437+421197778+442606805+454639396
2920+456729092+449048314+432323752+408480638+380795018+354016720+330243395
2906+310431627+293530476+278957061+266612729+255064812+243225488+230942734
2892+218516296+207251706+198199777+190568261+183938424+178425278+174151849
2878+171869463+171422185+172600517+174567056+177161697+180363978+185581868
2864+194453423+208797330+228621669+252501987+277416890+298366066+310156448
2850+309491527+296642314+274461822+247654723+220621900+196323104+176494916
2836+160665233+147134550+135603054+125459131+116493476+109243748+103525275
2822+98886544+94370907+89764954+85372474+81817527+79342195+78270855+77622419
2806+76074872+73451751+69810530+66620950+63279411+60598817+58070181+55956109
2790+54141721+52627079+51802054+51239764+50771895+50304090+50074325+49873296
2774+49105808+47529524+45271769+43371171+41918108+41388660+41487314+41557296
2758+41056584+39993455+39168494+38667783+39066120+39579403+39949067+40252983
2742+40056060+39378888+37687656+35520217+33619619+32975288+33640466+34872166
2726+35594881+36079428+35701874+34729124+33366312+32541287+32578363+33810128
2710+34861198+34483644+32735003+30838510+29566013+28679410+28363498+28433416
2694+28055862+26693114+25153777+24061911+23803409+24049916+24210149+24161014
2678+24645625+25310802+25676297+25565648+25606829+26506005+27589917+27627057
2662+26744558+24938380+23132266+21625771+20652957+20213824+20255069+20768353
2646+21285741+20846673+19401756+17776209+16951248+16754324+17000767+17189737
2630+17107824+16225326+14332938+13035874+13105791+14275913+15680034+16316539
2614+15105621+12560500+9953864+8299580+8669180+9863997+10410123+9560466+8111444
2596+6399751+5521357+4996015+5065996+5874857+6925927+8330048+8847501+7965002
2578+6195772+4126922+1672116+317515+535285+2239089+4858361+6919320+7137091
2560+6078067+5671776+6632595+7264930+7248638+6308666+5011602+3804789+3398499
2542+3616269+5172284+7524715+10209736+13038375+14475338+14040311+11643042
2526+8982974+7123428+5621102+5095759+4512943+3839812+3023061+2111826+1795851
2508+1984884+2707535+3044293+2757119+3155455+3607160+4539178+5290630+4531289
2490+2848268+992891-152342+537466+2389058+4236609+5997886+6868326+6671466
2472+5378444+3223320+2254676+2267120+2718824+2731268+2591883+1331702+449203
2454-872491-1040678-346764+1324197+2551857+3303244+3787791+4658295+5881785
2436+7433694+8989773+8879060+6313412+2852822+287239+0+1546778+4189656+6598470
2416+7907144+8062245+7860190+7153191+8047236+9474897+9539683+6492696+3269183
2398+2414395+3874963+4107778+4340593+4573408+4806224+5039039+5271854+5504670
2380+5737485+5970300+6203116+6435931+6668746+6901561+7134377+7367192+7600007
2362+7832823+8065638+8298453+8531268+8764084+8996899+9229714+9462530+9695345
2344+9928161+10160976+10393791+10626606+10859421+11092237+11325052+11557867
2328+11790683+12023499+12256314+12489129+12721944+12954759+13187575+13420390
2312+13653205+13886020+14118836+14351652+14584467+14817282+15050097+15282912
2296+15515728+15748543+15981358+16214173+16446989+16679805+16912619+17145435
2280+17378251+17611065+17843881+15778047+11815591+8004964+7655121+10770101
2264+14533710+16819431+17536886+16714940+18171403+19566287+18715604+16649769
2248+14345766+13790661+12935873+10636039+7859966+7834436+6716913+8144607
2232+8710232+8007338+5645894+3612901+3887054+6168639+10108772+15325604+20567100
2214+23653343+23069469+20999529+19081483+21280963+26555300+27568397+23991801
2198+16301786+11957542+13032185+18659573+22895285+21629940+19326002+20782432
2182+23868676+26803026+26810306+23028481+16315513+9286409+4145749+5807473
2166+12083458+19188733+24105914+25681397+22433253+19862473+20107858+22065160
2150+26777047+29210557+26372937+17771526+11243294+13557752+21163835+28474372
2134+28896314+23016678+16102553+12796936+12065273+12483109+12432916+12850753
2118+13716061+14195444+15146962+14710908+14094192+13867506+12749982+13463364
2102+16693291+20305006+22738484+24371472+24641520+24295749+23531276+21999091
2086+21505564+20950459+20038165+18863168+19223531+21891008+24558517+24594566
2070+19605767+14321424+11935380+15961692+25218114+33205984+35196128+33930815
2054+32517682+32935519+34391981+32120853+25149255+16794190+7884886+7920935
2038+13035168+19688834+21379296+15298535+8396694+8818636+13518207+19166122
2022+19969851+17702828+15168996+15943988+17338840+19677930+22641016+23711554
2006+23304237+18467365+10087637+2393516-990100+581277+5748878+12603701+19015190
1988+24720578+27388055+26623582+27488890+28912478+28328636+25055860+18950436
1972+13115990+3829036+1155593+1955217+3144807+6070947+7432989+8179213+9426308
1954+12734235+14276875+14226714+16003386+17722552+18555018+16760130+14201634
1938+11080752+9289969+10537032+13877801+15769387+15513964+11362667+7153864
1922+5244029+6901649+11802377+16292613+18455177+15539526+11302019+11042490
1906+12790393+15039167+17316646+19183633+19839574+19284436+17789230+15169188
1890+13054059+12326533+12391319+13371541+14618637+15890364+16665324+16524848
1874+15501745+13739666+12449722+11512797+10756535+9938693+9354819+9628972
1858+9755337+11117347+12364442+12811015+11167989+9262259+7323687+7273494
1842+9226691+11442623+12718423+12430158+10109767+6496256+3441058+1650243
1826+2248710+3963803+5559812+6835644+7253481+6792764+6742603+7484753+8317187
1808+8147974+6890840+4632059+2783803+2290244+1796717+1188243+226686+0+163793
1788+1033687+1788667+2334247+2325619+1725837+1035740+526305-16003+0+1955699
1768+6177523+12045516+19424271+29130665+43213279+64636033+91834894+124900113
1752+163269335+205530295+245878244+275963057+289655674+288323074+275352146
1738+253292182+225468491+194590468+164254369+140954622+124966342+113584111
1724+104291447+95503761+87196356+80161608+77810908+80070426+83844747+86137107
1708+86003238+83500676+78481570+70711983+62654998+58883916+60995614+66420274
1692+70691329+72688112+73260344+74017344+76810512+82034015+87733693+93523720
1676+99436871+105230970+110791103+117480145+125659422+134704873+144468772
1662+154212114+161902867+166087712+166906291+167248629+168219102+172046791
1648+177873764+185104698+191559773+195219147+195261835+192385664+188877319
1634+188747555+191384755+194354448+195177100+193134326+187778589+180099318
1620+171767281+163500961+156014604+149657220+143693908+137759365+131800158
1606+125393511+119733987+114702596+109847699+104578205+98807839+92770664
1592+87033140+82605221+80069785+78277430+76127887+72943823+68959269+64293213
1576+60045924+57071228+55426662+54701637+54300959+54462667+54328830+52893599
1560+49857356+49308858+53403419+59484885+64708388+68035237+68878448+66700168
1544+62157301+56337672+52800590+54234923+57742435+59882869+60015840+58580642
1528+55987733+52450650+48117119+43635831+41133237+40498560+40393428+38691388
1512+35039327+29408571+23010103+18446710+17688844+18117425+16624721+13625425
1496+11069463+9133425+5961677+2285016+0-234094+1358610+3661555+6350360+8300253
1476+10870038+20114914+40012923+65925079+91168113+111702435+126665912+135455137
1460+139186706+141009305+143521616+145882002+146247272+144527080+142030965
1446+139982353+138352444+135917939+132469440+128544701+126023987+125880175
1432+126811968+127267554+126618798+125493865+124311427+123334284+123908921
1418+125760257+128239727+128962153+127989082+124807424+121063315+117943236
1404+115627783+113673560+110910636+106542531+101731092+98586380+97551731
1390+98955628+102440849+108163460+115495325+122798421+128500506+133069543
1376+135938979+138332238+140491467+142675359+144567779+145680172+145659549
1362+145905735+146808792+147982795+148799610+149107407+149234541+149722968
1348+150626025+151742555+152588106+153281764+154336747+155929452+157702788
1334+158100868+156766601+153757330+149344067+144631186+139832030+135275084
1320+131251883+128427349+126374600+124982859+123829158+123566294+123159747
1306+122240108+120339253+117457246+114361829+111627610+109188968+106097657
1292+102973440+100091433+97895000+96679784+95287979+93448703+91371386+88904008
1276+86707576+84630259+82228565+80836759+80426171+81115723+82228116+82831458
1260+82806762+82190848+81037147+80326876+80782429+82995026+86307892+89743851
1244+92584549+94259360+95076239+94218115+91451054+86959855+81306810+74730084
1228+67143534+59232605+51325782+44375544+38796392+33869974+30220286+27789919
1212+26874322+26853668+26976761+26627687+24878726+21857204+18063832+13880463
1196+10444248+7603356+5320714+3013440+973071+0+475182+3122100+7842102+14171358
1176+22762602+34067475+49851102+71254805+98910791+131772287+167745492+204683429
1160+240451371+273953285+303624944+327500003+344396150+353069564+353323062
1146+345723234+331747966+312838261+290369248+265876351+241867872+220614075
1132+204565659+195340155+193044299+194907117+197943969+199535776+199744117
1118+199648735+200366126+201752671+205487414+213512199+224923744+237529915
1104+247484163+252204165+252116928+249394127+248424328+252939067+264880188
1090+284420112+311349534+343972862+380184171+416674636+450065708+474125502
1076+482240538+470170102+438571096+394783564+350996032+319261489+306115543
1062+312457115+333893660+365355204+403323621+445175532+488694171+529782506
1048+564043890+590382093+608932653+622220294+631878965+640671366+651155126
1034+667456078+692127553+726401188+767707102+812354746+856760117+898644870
1020+936260172+968748091+994511560+1012163072+1022831569+1029661728+1035986879
1006+1043822759+1053107789+1062396988+1069994764+1073741823+1071926280
994+1063915992+1048105680+1023460889+990478353+950734548+905460918+856640360
980+805159605+753215022+703602152+657995998+616203613+577133068+540796549
966+506557808+473932428+443072365+413936440+386906504+362409565+341044862
952+322401934+305708996+291655792+281280821+275520140+273577335+274660156
938+277085328+279970286+282888087+286109739+288419964+289502721+288787383
924+286015383+281781852+275557280+266676616+254930558+240384661+224508666
910+208402777+192645898+177845476+163845577+151253775+139914135+129214850
896+119521348+110653000+101936610+92259530+81375508+69830607+58930164+49725187
880+42786302+39012623+39910645+46149586+57253237+69847156+84058476+98163060
864+110740493+119323591+123238965+122515416+118725252+114393260+108907631
850+102206851+95756490+89273351+81944469+74196852+67023969+61427562+56652140
834+51782298+45401726+37485858+29298980+22442201+19904135+18269287+16092483
818+11202114+5979220+1721123+0-1741648-3663927-5709364-7360697-6717200-5199287
798-4465475-3641348-3330376-2259934-1222335+0-109686+630411+4301652+9828461
778+15330640+22926491+31688231+42342487+54716840+64977057+71382388+75780257
762+78905500+80208016+79006335+72833206+64525352+53721511+43985033+35410338
746+28995000+25293227+23389549+23464598+25916582+31669180+37122095+41080703
730+41718170+41592126+43604849+50486388+62146429+73523208+83315363+91251950
714+96183499+99431900+102561248+104245552+104456074+101402929+94503173+85452270
698+77111574+68894035+64334266+65833834+73610380+83833586+89105870+86672553
682+82235941+78784588+76166598+74533867+77720689+85226225+92128419+92109047
666+77692593+60993626+52299879+50392096+54133126+55287853+49488301+44033590
650+44876319+47792195+50621861+49399654+40939906+29331437+19393802+12145100
634+4219034+0-4805954-10502746-17127323-17084988-13450566-11388452+1322657
616+20322998+43428580+56792424+49474061+36404255+22501085+13914203+7342994+0
##END=
