##TITLE= Carolina Isabel
##JCAMP-DX=4.24
##DATA TYPE=INFRARED SPECTRUM
##ORIGIN= Exported PE Spectrum Data File
##XUNITS=1/CM
##YUNITS=ABSORBANCE
##RESOLUTION=8
##FIRSTX=3030
##LASTX=600
##DELTAX=-2
##MAXY=0.14024836
##MINY=-0.0020994768
##XFACTOR=1
##YFACTOR=1.3061646e-010
##NPOINTS=1216
##FIRSTY=-0.0019071326
##XYDATA=(X++(Y..Y))
3030-14601012-14297664-14023493-13516592-12602642-10927528-8439256-5166976
3014-1457528+2369653+5718598+8195005+9499576+9582087+8684394+6879510+4534299
2996+2127055+0-1443467-1966967-1759449-1053587+0+398607+1563883+3676478+6708157
2974+10531089+15119749+20613803+27396513+35592973+44700245+54358768+63889546
2958+72804246+80588180+86848845+91525121+95243126+99239465+104921528+113020303
2942+124084333+138339074+155831015+176245343+198817186+222355544+245771633
2928+267786749+286872235+301234642+309603567+311254381+306550269+296890406
2914+283595362+268380981+252849020+238189540+225067019+213632903+203693735
2900+195106255+187264395+179807709+172694157+165908252+159671801+154013952
2886+148855361+144178629+140049497+136607631+134187924+132847017+132599456
2872+133122186+134056557+135455446+138097417+143185305+151932987+164420805
2858+179583621+195407236+208825033+216680126+216878888+209162976+195208987
2844+177748562+159665669+142972796+128752309+116980507+107192870+98995070
2830+92005669+86202706+81645533+77866894+74422261+71056147+67803175+64854121
2814+62287503+59862319+57504702+55199990+52978331+51063357+49375608+47885024
2798+46519446+45183074+43841255+42477503+41027988+39629555+38558769+37907838
2782+37431197+36854193+36051730+35199984+34413066+33749329+33057328+32401805
2766+31782789+31243203+30840489+30503516+29972116+29281911+28678439+28219140
2750+28019979+27921182+27815998+27681636+27532643+27355386+27033899+26813718
2734+26723165+26703771+26642422+26537238+26345349+26111507+25739824+25275077
2718+24854109+24519845+24306994+24145224+23889477+23555213+23170752+22821914
2702+22531458+22276624+22165051+22097285+21957448+21624096+21233275+20920915
2686+20788350+20835609+20825342+20714709+20503655+20184906+19809601+19562953
2670+19552714+19858229+20141840+20138902+19842058+19388263+18927138+18551804
2654+18199315+17859574+17399391+16931877+16564757+16176674+15702772+15164099
2638+14640000+14045626+13485962+12891588+12369343+11817864+11138612+10579860
2622+10221867+10035483+9763280+9433579+8962444+8633655+8397075+8289152+8209522
2604+8137222+7873233+7152939+6234569+5515159+4988351+4539091+4112647+3799403
2586+3720685+4004325+4295237+4379887+4173425+3569924+2703604+2078199+1844328
2568+2148959+2411579+2503559+2205801+1844157+1531825+1447632+1695678+2022184
2550+2072153+1746131+1348893+1186238+1314696+1867544+2335542+2590861+2881802
2532+2988356+2953446+2705914+2083247+1495290+1000397+718155+428640+210284+47630
2512-29261-28577-55244+58610+306656+817521+1440644+1780869+1888336+1634415
2492+1055556+525981+11038-86845+141121+622781+970279+1119756+1127742+1029887
2472+946606+672578+313701+67965-50880+0+212879+311704+263561+235497+638211
2450+1104840+1444580+1191087+443841-416546-740314-287403+700329+1456274+1668241
2430+1485935+1084590+803746+790284+1030543+1278104+1427125+1174545+837086
2412+654781+726226+1171835+1701410+1659656+970849+0-688492-770974-594498
2392-418022-241545-65069+111406+287882+464359+640835+817311+993788+1170264
2372+1346740+1523217+1699693+1876169+2052646+2229122+2405599+2582075+2758551
2354+2935027+3111504+3287980+3464456+3640933+3817409+3993885+4170362+4346838
2336+4523315+4699791+4876267+5052744+5229220+5405696+5582172+5758649+5935125
2318+6111601+6288078+6464554+6641030+6817507+6993983+7170459+7346936+7523412
2300+7699889+7876365+8052841+8229317+8405794+8582270+8758746+8935222+9111699
2282+9288176+9464652+9641128+9817604+9994080+10170557+9420916+9492674+10113858
2264+10776112+10764818+9790632+8535373+8390829+9207323+10270238+10715277
2248+9797705+8817158+7907800+7152654+6608363+6800593+7000125+7177752+7524224
2230+7646179+7501635+7560616+8033007+8821208+10149709+11316667+12034594
2214+12114566+10967002+9244458+7769246+7092618+7803214+9522336+11298956
2198+12072555+12629852+13186236+14185264+14903190+14815232+13926837+12821255
2182+10848640+9478385+9824857+10766386+12247302+13862380+15842524+17808950
2166+20078410+21415124+21311651+18976707+15312008+13072895+12684669+12701667
2150+13012516+13086100+12227851+10048973+8017948+7008196+7200427+7371666
2134+7110301+7015954+7326802+7931558+8584685+9203131+9723921+10426332+11491985
2116+12894411+14219261+15125168+15842182+16349282+16415565+16439864+16386588
2100+16117921+15519782+14782005+13961147+13216982+13087954+13175227+13724310
2084+14754369+15813633+17249828+18581979+19361938+19176324+18180263+17085633
2068+16264804+15779835+16545220+18113752+18851757+18826773+18474113+18149774
2052+18202366+18338924+17971690+16669885+15256735+13175513+11213850+9100656
2036+7747741+7029130+6978591+7817903+9944986+12422534+14036699+13587325
2020+11174776+9036056+7760718+7431816+8180773+9465466+10082086+9558786+7977705
2002+7002606+6986748+7847051+8456370+9281991+10398753+11850463+14116272
1986+15750516+16402730+16378630+15645417+13910095+10785695+6943026+3646132
1970+1031912+192829+1465657+2123319+1886596+866805-82709+0+1342818+3047052
1950+4245668+5208817+5450959+5582668+5423236+5561334+5353531+4598129+4043513
1932+4133211+4756847+5629642+5796032+5650291+5262693+5053977+5421154+6669055
1914+7375744+7035605+6272901+6045019+6550009+7291379+7908627+7949983+7499410
1896+6923803+6438550+6230747+6265713+6673932+7270188+7498640+7269846+6514443
1878+5759953+5068437+4355017+3657112+3677476+3926919+3981965+4037922+3982535
1860+4231978+4543483+4888756+4985784+4564417+3582673+2580850+1772513+1717125
1842+2034990+2360184+2408841+2036758+1387225+1063513+1257284+1720291+2286430
1824+2667297+2853766+2875043+2626170+1957470+1432972+1143029+1129625+1317007
1806+1372052+1220834+1069617+1187636+973416+491813+160800+347270+734526+907305
1786+839140+694311+550395+440248+206890+0-300780+309280+2002647+4332172+6912680
1764+10832070+17397280+27955379+42796651+60974632+82572375+108107362+137073063
1748+165609782+187094354+197718193+198436861+191099420+177890767+160756762
1734+141009793+120780936+103906129+91622006+82821561+76101083+70705797+66756175
1718+64390001+64039937+64902806+65441679+65303353+64558987+62989600+60342353
1702+57386625+55327136+55314758+56865749+59241820+61528449+63252876+65133368
1686+68563541+74362111+80951964+86077899+90280215+94752653+100052907+106521375
1670+114143454+121928900+129344687+136836254+144693801+151816650+157160713
1656+161457918+166505364+172540315+177694543+181370251+184332254+186210893
1642+186711433+186418867+186067889+185906746+186040367+185446620+183708389
1628+181069356+177720269+173262263+167808567+161866593+155307657+148296039
1614+141123762+133973418+127291272+121031691+115064163+109558445+104448795
1600+99567340+94742471+90080969+85581922+81280894+77490076+74336300+71347716
1584+68240485+65079379+62154681+59522037+57457984+55869431+54684248+53930785
1568+53467549+53245258+53036656+52870922+53462729+56256801+60402532+63495046
1552+65212172+66475673+67207118+66971137+66122756+65530835+65401607+65158324
1536+64630289+63569257+61954237+59905671+57525836+54854860+52484151+50737706
1520+49594506+48543513+46693024+43936258+40440231+36177536+31383697+26539662
1504+22362786+19145122+16141023+13069358+10300727+7821411+5133094+2635525
1488+1104441+363755+0+187639+1389221+3543656+7823692+17633547+34161569+53597347
1468+71650407+86981924+99495125+108730028+114983221+120139417+124635755
1454+126497195+125355079+122940705+120295397+117833565+115938498+114464142
1440+113374960+112706517+112313671+112001168+111528036+110954482+110488652
1426+110538477+111226257+112574779+114825045+117317166+118756955+118356836
1412+116793068+114619609+112330270+110172356+108212461+106267198+104090117
1398+101451198+98509303+95908745+94170628+94074427+96242553+100768096+106795860
1382+112923133+118501893+123105897+126431284+128978166+131270385+133265104
1368+134961380+136262443+137226761+137956524+138429799+138661245+138657224
1354+138477942+138348885+138558428+139260810+140529017+142254499+144297589
1340+146468424+148294299+149161874+148643993+146798210+143767786+139950615
1326+135968280+132086338+128463564+125255170+122685643+120660065+118956629
1312+117422066+115910319+114391243+112616648+110704241+108601970+106289815
1298+103664614+100910700+98092014+95362770+92896346+90925528+89421082+87975019
1282+86413076+84676813+82746152+80808162+79066423+77550113+76658038+76409422
1266+76618052+77000973+77260712+77368036+77432436+77684874+78264046+79336943
1250+81159167+83745294+86436349+88758714+90129169+90290340+88906338+86095867
1234+82078850+77129972+71468330+65294682+58862721+52334046+45997030+40302504
1218+35571782+32100540+29786530+28526680+27904783+27447138+26724848+25257821
1202+22982173+20027471+16596387+13018363+9428445+6098667+3141256+961409+0
1184-55615+1683984+5509027+11599280+20206696+31699052+46795528+66145031
1168+90069732+118360630+150177159+183650150+216808299+247957669+275745687
1154+298477533+314775991+323732959+324990670+318926029+306609649+289331101
1140+268787032+247126771+226899397+210738866+200192147+195372383+194932535
1126+196849192+199164684+200765559+201435513+201709370+202481543+204525032
1112+209001719+216547704+226367142+236485934+244491903+248664672+249071778
1098+247627055+247544060+251892061+262624165+280335431+304479172+333970226
1084+367145688+401657322+434136447+459233012+470417799+463003352+436953164
1070+399161521+361204656+333649481+322461158+328012966+346346671+373459316
1056+406755278+444006737+483059743+520679977+553077818+578158012+595986955
1042+607822530+615995460+623525986+633337153+648393472+670360503+699481014
1028+734366842+773330464+814322943+854815282+892523074+925641922+952834026
1014+973504101+988515756+999756158+1009413198+1019414200+1030861777+1043923064
1000+1056963359+1067746516+1073741823+1073073865+1064149925+1045992422
988+1018830549+983578914+941169177+893273343+841927687+789398302+737468539
974+687535691+640650237+597218313+557309283+520658472+486775780+455380104
960+425911067+398396963+373008459+350095107+329886899+312622896+299062552
946+289696824+284663524+283351167+284565071+287120594+289737267+291840108
932+293110597+293499450+292721915+290832752+287518916+282215467+274324608
918+263653710+250074200+234695824+218718738+203250921+189099169+176395819
904+165174639+155045009+145626346+136392042+127193332+117967242+108421718
890+98096777+87245171+76208350+65895274+57395666+51632234+49420899+50796345
874+55523103+63542762+74161695+86806749+99972022+111880554+120560983+124700896
858+124066650+120159524+114488271+107961848+101381579+95306927+89370087
844+83239762+76770838+70048192+63297254+56709683+50023545+43308200+36595594
828+30157701+24695448+20530037+16768995+12980573+9073504+5841808+3187831
812+1367118+0-2000165-3591399-4712667-4796233-4407951-3820650-3163130-2427122
792-1431003-666645+0-169926+1047399+3909351+8657727+14974122+22967085+31948467
772+41390745+50299113+57193169+60999730+62681604+62865791+60917077+56311590
756+49452672+41188304+32357170+24560088+17827175+11620870+6034267+1458841
740-1473727-2040665-1317091+731673+3869250+8323748+14168294+21240377+28705819
722+36337367+43278025+49866338+56616249+63172675+69087497+73213492+74373320
706+73115494+70928516+67713021+63510020+58189002+52224554+47345267+45286976
690+44201644+43420230+42821350+41987914+41608073+41387893+40546243+39305758
674+38477798+38722222+39260524+38483673+33236525+26597616+22316126+20243289
658+19738413+19873316+18557023+16853816+14646817+11811903+9424196+7061131
642+3936845+2031026+1305284+0-5347427-9323117-11174975-12239258-14630559
624-16073599-13876867-7641643+3512854+13984677+20827738+23487134+21851521
608+19887463+17199545+11955249+5982644+0
##END=
