##TITLE= Carolina Isabel
##JCAMP-DX=4.24
##DATA TYPE=INFRARED SPECTRUM
##ORIGIN= Exported PE Spectrum Data File
##XUNITS=1/CM
##YUNITS=ABSORBANCE
##RESOLUTION=8
##FIRSTX=3030
##LASTX=600
##DELTAX=-2
##MAXY=0.096923031
##MINY=-0.0012922585
##XFACTOR=1
##YFACTOR=9.0266607e-011
##NPOINTS=1216
##FIRSTY=0.00058114529
##XYDATA=(X++(Y..Y))
3030+6438098+4712688+3178770+2383087+2424687+3145094+4453183+6776841+9401604
3012+11997314+14093823+15342483+15023550+13040616+10013059+6689679+3598732
2996+1346388+0-540799+0+1032407+2869122+5570812+8998852+13046311+17842529
2976+23539421+30180608+37908637+46718267+56604255+67554635+79282869+91046802
2960+102410541+112642495+121379531+128581947+134704083+140373282+147109514
2946+156082903+167764956+182413115+199525622+218785440+239709260+261836219
2932+284228585+305547275+324130969+338600843+348238511+352040332+349537397
2918+341209139+328324730+312629967+295751915+279219910+264083776+250653903
2904+239162764+229162582+220259847+212356875+205198700+198476335+191794951
2890+184981462+178158729+171931623+166610473+162296967+158915810+156596465
2876+155419469+155228967+155455807+155307586+155504051+157583722+162921422
2862+172139148+184613541+198564426+211388808+219958082+221879297+215996877
2848+202627753+183932527+162943357+142973696+125492134+111166891+99614961
2834+90026838+82199121+75673531+69995809+64892564+60194754+55850853+51829209
2818+48327894+45494801+43167532+41100427+39202344+37325411+35332263+33162128
2802+30836180+28560415+26484046+24823697+23626892+22883044+22335992+21751961
2786+21107161+20237873+19377830+18696052+18112021+17480448+16710208+15735249
2770+14722012+14061384+13666184+13438725+13386911+13453933+13647757+13939308
2754+13859740+13543798+13081267+12746816+12510112+12401511+12233460+11978268
2738+11437818+10869615+10585369+10496576+10613803+10926464+11179716+11032816
2722+10465934+9694373+9118266+8991155+9099138+9226930+9130193+8993858+8926196
2704+8956241+9035169+8949019+8676637+8249763+7870431+7686532+7746972+7954002
2686+8003856+7830543+7599123+7571080+7671118+7526859+7442029+7503769+7680424
2668+7965372+8231810+8312059+8256283+8006353+7649472+7234483+6897391+6463913
2650+5943273+5596936+5649452+5731022+5220926+4341073+3337081+2720035+2822714
2632+2963713+2415339+1548672+798242+609081+944193+1241026+1024132+400462+0
2612-224363-61801-140894-316394-472085-493091-639537-873145-1067134-1077576
2592-895184-586010+119352+774511+919926+764235+261218-18632+0+381726+849313
2570+1067280+743786+45252-683676-774717-256966+413978+563292+530338+604356
2550+1266077+2022863+2193307+1698131+1010142+235011+0+162335+815946+1575188
2530+2123149+2284163+2562714+2357912+1566728+564262-698368-1391804-1624339
2512-1481814-877087-310637+82808+361359+503884+425843+194629+395262+981521
2492+1759272+2364000+2631985+2544720+2774408+3157289+3406786+3396097+3030178
2474+2414658+1538974+626311+58314-297039+0+784664+1655148+2525654+3118805
2454+3364649+3198455+2609638+1962733+1432023+1189232+1310937+1624113+1707520
2436+1551871+1212674+922340+708583+456548+80352+0+321307+739019+916397+997348
2414+1298845+1476202+1509610+833858+72243+0+638672+1575807+2070550+2316993
2394+2294026+1936938+2126344+2315751+2505157+2694563+2883969+3073375+3262781
2376+3452187+3641593+3830999+4020405+4209811+4399217+4588623+4778029+4967435
2358+5156841+5346247+5535653+5725060+5914466+6103872+6293278+6482684+6672089
2340+6861495+7050902+7240308+7429714+7619120+7808526+7997932+8187338+8376744
2322+8566150+8755556+8944962+9134369+9323775+9513181+9702587+9891992+10081398
2304+10270804+10460211+10649617+10839023+11028429+11217834+11407241+11596646
2288+11786053+11831760+11963307+11460971+10644302+9961017+9594685+9926970
2272+10633015+11434124+11948656+12175290+11779925+11585275+11649471+12461146
2256+13167170+12857646+12221904+11146391+11057393+11562680+11712737+12265568
2240+13048189+14299635+15475806+16247882+16255290+15418812+13739768+12912535
2224+13934211+15502611+16936305+17862875+18588709+19650005+20585819+21196758
2208+21069461+19119707+17583292+18482129+20595951+22874852+23312808+21565091
2192+19635127+19709887+19984063+21457397+21483294+19946879+18162185+16512195
2176+15562163+15721444+16887049+17861162+18202691+17462640+18589947+21575388
2160+23641667+23053468+20847511+18489661+16697043+15497390+15132399+14908696
2144+16370124+18127374+19579557+19634528+17431192+14722053+13266197+12297655
2128+12171699+12426066+13723735+15632858+17247480+17961448+17614926+17009559
2112+16548141+16946457+18044731+18969980+19435649+20054511+20339252+19781449
2096+19769047+20216227+21198264+21415674+21786256+22233436+23226038+24811605
2080+26369460+27276221+27331172+27079735+26013466+24259167+22037342+20094171
2064+19355420+20012581+21089724+21575202+21495448+21387961+22112474+23065478
2048+23904886+24160573+24167981+24164845+25070285+25747255+24242535+20531034
2032+16383743+11228786+7328434+5201695+5713585+7169751+8234988+10825559
2016+14657528+17079068+16637459+15079925+13065440+12042752+12393535+14041173
2000+15498649+15734527+14854478+13661428+12132937+10959707+10813921+12565899
1984+15472102+17844768+18777952+17287759+14148103+9295572+6400233+5608657
1968+4732559+3703279+1629365+638383+0+17168+1393271+3691176+5163685+5788346
1948+5701184+4813717+3973792+3477233+3807392+4775418+5867584+6597895+6471114
1930+6173971+6428854+7882874+10356424+12011180+12095701+11168615+10862227
1914+10687903+10180779+9026544+7433857+5804193+4801831+4780701+5435736+5670809
1896+4764853+3667405+2933132+2787862+3441576+5095012+6568841+7194822+7029743
1878+6542428+5958708+5862301+5993044+5723634+4826923+3339887+2320357+2564674
1860+3000484+2941055+2872382+3069157+3532700+3740040+3604014+2964827+1583442
1842+96406+0+959576+1863685+2396685+2397480+1996801+1189366+799253+1131516
1822+1750368+1760407+1351794+1170351+933421+437667+0-199250-142318+152348
1802+114194-238250-866728-1447643-2161962-3000400-3484929-3029145-1734778
1784-201355+208186-325185-505967+0+244668+424605+1242429+3273897+7225589
1764+13401211+22249820+34347172+49351263+66740401+87104952+110356413+135349770
1748+159031758+176294115+183765301+182299726+174586245+162933287+148858304
1734+133423046+118806602+107584192+99627693+94255699+91180269+90087133+90290841
1718+93257339+100323070+109166396+116035352+119909127+121132386+119998290
1704+116444811+112559831+111778366+115770977+122868423+130896897+138546369
1690+144230714+149230991+158356913+173983024+191793465+205323707+215116570
1676+224740372+236224969+250810398+267794122+284578409+299215364+313029542
1662+327300680+339192034+345226348+349178019+358507319+373632929+386619069
1648+394924917+400177415+401108793+397336068+391169030+384568865+381169879
1634+382043191+379386402+369365750+356752690+344043244+330876838+317463493
1620+303825620+289790256+276190702+263156360+249855269+236161929+222542566
1606+209471245+197743032+187365808+177279144+167449984+158458127+150199224
1592+142440820+135569904+129541533+124025589+118563770+113632868+109379431
1578+106149507+104328681+103775686+104452202+106100685+108187640+109661800
1564+110241909+110872183+114594084+125535880+139895501+149218198+153542309
1550+156376723+158128237+157871064+157121273+158612621+162006985+163844340
1536+162360275+158229678+153045193+147714138+142227228+136373201+131096292
1522+127072646+124912437+123211789+119622652+113487309+105454234+95837696
1508+85484264+75851879+67908607+61547456+55371174+48558366+42187950+36837086
1492+31519217+26952810+24294700+23690200+24039178+25430158+28454764+33147313
1476+41130905+57256195+82462196+109153891+131170557+148759112+163104206
1462+173392287+180460679+188693872+198935731+205026853+204657405+201382580
1448+197670603+194704807+192189326+189053167+186191680+185220043+186185779
1434+187213563+187161089+186085101+184612943+183773349+183719554+184779034
1420+188211716+193797014+198069621+198388245+195712967+191738205+187488730
1406+183589244+179948582+176441325+172812549+169247183+166652465+165046923
1392+163667189+163326815+165680539+170701925+176857738+182540804+187073555
1378+190718840+194040568+197477233+200775190+202726099+202916642+202107423
1364+201401213+201128171+201154956+200417051+198660935+196656541+195177800
1350+194461025+194271184+194101194+194126616+195007810+197107951+199591117
1336+200816997+199285390+195244575+190020512+184368522+178525040+172994549
1322+167963299+163651754+160032222+157069087+154455880+152201885+150050900
1308+147981835+145759536+143302163+140517273+137325668+133776130+129942655
1294+126090733+122638922+119748381+117500989+115734350+114139352+112290793
1280+109973408+107372127+104699491+102475871+100882235+100215644+100352000
1266+101171124+102348182+103463128+104539777+105727358+107325698+109373014
1252+111862742+114752664+117789135+120653924+122855753+123973383+123584125
1238+121289191+116945951+111019310+103943675+95814172+87024394+77769710
1224+68651052+60429105+53492178+48091108+44218015+41822712+40720353+40354867
1208+40039565+38876457+36440214+32390155+27303397+21615791+15973046+10807050
1192+6219492+2446808+0-1031869+284349+4388472+11417761+21712982+35337525
1174+52628193+74025997+100164882+131343313+166955117+205733847+245487164
1160+284143033+319556742+350393169+375195571+392656561+401932251+402771721
1146+395885515+382415899+364111436+342814413+320863676+300841108+285515999
1132+276496925+273724457+275368235+278859542+282033896+284201925+285619834
1118+287039104+289374855+293246504+299467564+308719524+319722605+330267426
1104+338115509+341843210+341916752+340254939+340241279+344962097+356614972
1090+375940699+402286924+433899844+468381184+502804457+533415015+555127130
1076+562050768+550774728+522980219+486019138+451449728+428648501+422200746
1062+431328525+451379281+478226027+509482375+543450029+578603573+612956811
1048+643591140+668854485+688215869+702630111+713835291+723367225+733066798
1034+745455267+762575574+784774962+811201788+840790214+872084820+902573837
1020+930527317+954954700+974866748+990087980+1001278633+1009680021+1017068564
1006+1024830847+1033903118+1044177168+1054814557+1064360936+1071091720
994+1073741823+1071044673+1062580224+1047500795+1025168435+994724649+956277894
980+911712635+863242174+812096105+759892290+708195599+658551134+611776410
966+568378552+528329866+491268417+456865407+425297801+396601258+370831284
952+348056470+329461467+316236169+308573429+305975285+307306031+310826392
938+315565699+320512387+324720798+327963825+329501912+328796280+325742516
924+319999939+311251595+299389193+284786513+267876641+249197118+230075182
910+211740345+194891264+179657279+165891841+153024434+140777768+128532382
896+116280392+103708808+90820272+77639916+64636485+52585231+41976112+33786438
880+28672483+27587788+30968161+39104142+50947189+64929624+79528796+93686876
864+106635295+117078427+123244020+124742488+122227544+117387002+111792336
850+106731206+102080794+97229646+91625777+84960075+77322386+68684975+59403136
834+50402551+41754575+34110283+27037826+20918908+15550071+11064780+7814201
818+4841037+2006458+0-3434972-5925691-7682136-9161248-9874391-9521781-8450746
798-7184256-6189818-5318198-4218109-2396953+0+1219029+2950382+5809641+10635326
778+17286046+26067035+35998214+46432638+56587087+65471002+72280282+76559224
762+78492634+76399509+70496268+61843547+52453911+43465665+34966137+27393696
746+20239813+14032908+8915528+5105494+3408560+3574960+5898041+10099065+16455284
728+24381821+33256574+42181430+50259840+57947259+65250456+71546009+78207294
712+85542187+91725485+93925664+91361072+85232085+79591650+77152519+76584646
696+75779141+73379628+68035016+61013280+54367924+50563173+51349034+53971816
680+56903709+57726548+54535893+46366524+37925104+36694271+43610522+52262088
664+53787422+49119058+40549454+31624682+24835377+20004492+20234365+21833737
648+23949395+24279637+21511585+16345341+9511135+3279056+0-5258852-8984448
630-12391770-14316018-12921427-8712644-3484331+3312897+7578467+11064862+9927713
612+5801965+1623391+4660853+9445433+9080855+4617024+0
##END=
