##TITLE= Carolina Isabel
##JCAMP-DX=4.24
##DATA TYPE=INFRARED SPECTRUM
##ORIGIN= Exported PE Spectrum Data File
##XUNITS=1/CM
##YUNITS=ABSORBANCE
##RESOLUTION=8
##FIRSTX=3030
##LASTX=600
##DELTAX=-2
##MAXY=0.31109226
##MINY=-0.003321141
##XFACTOR=1
##YFACTOR=2.8972724e-010
##NPOINTS=1216
##FIRSTY=0.00085020065
##XYDATA=(X++(Y..Y))
3030+2934486+1903384+1125737+829902+1094466+1946175+3408892+5541867+7985901
3012+10276463+12051885+12879729+12532462+11070979+8789470+6089100+3447980
2996+1298959+0-435728+0+995846+2699804+5076050+8109826+11777239+16068005
2976+21104710+27044582+33940260+41778166+50509724+60106594+70325582+80763874
2960+90850760+100032885+107884369+114286714+119526292+124344104+129854006
2946+137150028+146868689+159399608+174670422+192377864+211930263+232550770
2932+253351519+273185352+290729858+304659334+313902328+317533534+315192081
2918+307291068+294915883+279627223+263146581+246834224+231799816+218405075
2904+206793163+196724201+187976803+180293037+173374164+167007461+161003660
2890+155335990+149985166+145010410+140484139+136584486+133520520+131617265
2876+130901053+131042284+131579359+132163752+133034928+135035929+139280200
2862+146666742+157256038+169846233+182050869+190861040+193460321+188346905
2848+176077053+158762807+139360845+120490070+103822192+90076893+79238513
2834+70747874+63921989+58212378+53242546+48813790+44842967+41251518+38026250
2818+35184058+32733145+30653788+28834044+27198234+25569405+23887100+22175158
2802+20542639+19116258+17888597+16788499+15776439+14808829+13942423+13241847
2786+12691026+12137750+11546195+10895816+10286158+9785547+9384496+9016785
2770+8649486+8342246+8067935+7856152+7726673+7643675+7518310+7369891+7183220
2752+7032743+6908613+6794756+6668157+6567467+6529330+6511342+6431237+6286534
2734+6197364+6170337+6234639+6298955+6224186+5951521+5539771+5164654+4997309
2716+5037348+5167895+5221512+5155384+5053883+4985299+4981300+4964971+4925999
2698+4816269+4710230+4620661+4634355+4748045+4887643+4976234+4961538+4943974
2680+4926809+5025686+5146782+5284323+5447799+5598095+5691212+5678573+5573369
2662+5378456+5126364+4919518+4761237+4602943+4362372+4019746+3674666+3416388
2644+3238358+3047572+2869940+2673805+2519626+2406604+2268883+1925037+1556079
2626+1286294+1124708+954084+742712+430136+143469+0-33764+43575+48076-38354
2604-67992+41428+84605+45916-39691-90326-87471+16612+133440+221876+225567
2582+200854+176552+127576+0-146952-42096+118717+104252-54221-231622-198358
2560+19647+322001+543286+764583+913877+1053707+1112480+989391+722705+428452
2540+125146+0-56818+133221+485798+822740+972458+1065819+959201+665796+428760
2518+225862+45607-144522-355649-324006-196095-27026+63865+36246+0-20533+108714
2494+374551+668368+890604+1029302+1133452+1203437+1248736+1266068+1202331
2476+1046018+805780+497640+214200+15095-47818+69497+270736+443585+601224+730870
2454+786043+832178+757743+580869+302354+45646-71978-37788-83833-173067-221991
2432-156930-143725-165082-160916+0+172129+297751+188857-24956-133863-45259
2410+179124+378807+424209+346585+164029+0-264358-380581-438390-597404-821440
2388-971403-815095-658788-502480-346173-189865-33558+122748+279056+435363
2368+591671+747978+904286+1060593+1216901+1373208+1529516+1685823+1842131
2350+1998438+2154745+2311053+2467361+2623668+2779975+2936283+3092590+3248898
2332+3405205+3561513+3717820+3874128+4030435+4186743+4343050+4499357+4655665
2314+4811972+4968280+5124588+5280895+5437202+5593510+5749817+5906125+6062432
2296+5675056+5334173+5058300+4905040+4921704+5014905+4911430+4438471+3834258
2278+3365002+3283335+3465814+3648300+3560461+3005623+2460659+2274894+2481656
2260+2645627+2852794+3326589+3862102+4158149+4101169+3893597+3590980+3267372
2242+3366744+3810092+4455874+4825572+5017110+5183961+5338879+5324684+5289100
2224+5216896+5157036+5348574+5985305+6953667+7461606+7441657+7418005+7539185
2206+7408143+7529323+8089523+8831168+9677740+10367548+10227043+9800990+9399623
2188+9206864+9404985+9255422+8740905+8336659+8420807+8499196+8684562+9615893
2170+11218299+12683286+13305616+13845243+13886189+12748733+10822519+9448477
2154+8771842+8966260+9458570+9975568+10158054+10070215+9991840+9968593+9647871
2136+8493956+7337573+6818942+6796524+7321339+7972053+8650341+9148000+9455979
2118+9659861+9836175+9917032+10032040+10333841+10893219+11504851+12131707
2102+12796005+13227009+13059348+12729568+12457809+12253940+11976421+11910390
2086+12310535+12836173+13175011+13390819+13726777+13869352+13692639+13384673
2070+13048727+12575356+12105271+11785784+11627998+11651251+11549011+11315106
2054+10986567+10771171+10561954+10508677+10269423+10042101+10001168+10430938
2038+10903499+10654775+9535834+7921091+6375061+5667984+5685889+5718606+5745145
2020+5187837+4898386+5387405+6022901+5964276+5361708+4631591+3919982+3813216
2002+4557336+5410491+5680617+5209304+4725646+4285185+3887111+3944515+4563142
1984+5376797+5825905+5938033+5843604+5427014+4152132+3114658+2814509+2690051
1966+2263174+1560624+1121809+531997+126927+0+156211+620600+1145885+1647306
1946+1985379+1896363+1686381+2009224+2698679+3206682+3314753+3092427+2740081
1928+2305856+2207789+2591533+2890519+2759124+2339711+2151124+2140696+2124502
1910+2187313+2410590+2588197+2578181+2482993+2333494+1887337+1337905+1133683
1892+1368893+1783085+2084951+2459643+2719541+2621467+2374865+2322469+2333436
1874+2186818+1943507+1648353+1347440+1122233+1121269+1280771+1443154+1321222
1856+1189827+1152237+1087497+892738+743239+717999+504725+121932+0+54286+69478
1834-18598-118607-191460-337147-294381+141733+623931+684794+511957+418120
1814+375715+169545+0-251397-453832-653387-871046-964446-1157829-1521143
1794-1738390-1746208-1665563-1618246-1491518-1288260-1149189-1021638-637752+0
1774+424806+1125692+2592710+4866582+8028789+12589519+19459334+29508031+42646339
1756+58118406+75955101+96058900+117526268+137999963+153037534+159795838
1742+158936080+152432016+142091135+129172086+114592411+100327511+89160843
1728+81645825+76961607+74465923+73679815+74356013+77551953+83938315+91452048
1712+97257425+100389191+101168664+99960405+96977958+93598472+92110425+93617347
1696+97556783+103205410+109567896+115412361+121461731+129956793+141947139
1682+155484551+166848254+176076114+185300259+195364592+206987922+220277652
1668+233733184+246200817+258520738+271354564+283200928+292511863+300303764
1654+308778241+318033244+325288995+329228431+331085938+331460515+330599960
1640+328839119+326163617+322659859+318473088+312800584+305358368+296494630
1626+286036460+273973671+261379671+248803775+235818893+222288425+208953821
1612+196567605+185196033+174152814+163268814+153186326+144111899+135652196
1598+127746297+120593358+113970795+107721408+102076857+97287718+93084502
1584+89252816+86024320+83501056+81663697+80598624+80349052+80916626+82075472
1568+83610374+85489662+87489095+89685215+93613542+101288975+110670295+117683302
1552+122193012+125772426+128720670+130496285+131276581+131525690+131121425
1538+129890947+127703840+124637457+120892600+116739569+112324853+107800278
1524+103605291+99929546+96956563+94156802+90283571+85199420+79474636+72581324
1508+63825786+53968775+45637021+39935690+35133398+29971893+24813269+20105598
1492+15683078+12062467+9849027+9062508+9240037+10565097+13457384+17787714
1476+24725000+37905270+58133739+80442529+100162853+116516252+129912536
1462+140033662+147178308+153219062+158540982+161020169+160177692+157675824
1448+154716830+152087411+150105619+148593322+147414276+146568919+145957679
1434+145342736+144581727+143640913+142930924+142920432+143680156+145242213
1420+147870758+151042422+153251284+153551825+152250192+150017002+147283485
1406+144405137+141544480+138723735+135868839+132918075+130109699+127852234
1392+126469518+126461469+128302081+132034144+136981230+142083433+146718251
1378+150429330+152991631+154704281+155994368+156881641+157260770+157140806
1364+156548107+155599064+154503543+153321617+152124879+150995619+150065091
1350+149401211+149093624+149123428+149559749+150436736+151601330+152542504
1336+152557496+151166578+148408374+144611661+140244262+135788400+131572416
1322+127699996+124220102+121101079+118263875+115688356+113374110+111267649
1308+109244300+107210254+105078308+102752541+100112424+97188404+94128193
1294+91123116+88325824+85932579+84036807+82633930+81551988+80463050+79042481
1278+77291104+75427811+73786703+72684213+72322726+72677579+73513421+74552109
1262+75599850+76620435+77745529+79210097+81070870+83384242+86109478+89023983
1246+91817933+94118961+95426354+95397321+93821634+90716986+86342181+80902123
1230+74560981+67610889+60303269+53002618+46160737+40265200+35654632+32535172
1214+30813007+30077097+29810681+29426152+28453656+26609701+23750279+20079060
1198+15900106+11597717+7559095+4083316+1422215+0-92267+1746440+5722624+11900933
1178+20532713+31952502+46562727+64664933+86587510+112483056+142053294+174515664
1162+208389294+241846147+273079069+300669006+323152780+339383284+348664775
1148+350828094+346274873+335909845+320867825+302836209+283897724+266425274
1134+252875184+244687568+241820483+243001252+246386202+250147196+253319400
1120+255623051+257572826+259929966+263501280+269067320+276974145+286497133
1106+296028788+303645924+308024098+309191314+308719274+309298112+313667645
1092+323688518+340116931+362810135+390683153+422020172+454327012+484345734
1078+507262769+517156117+510250178+487275746+454902070+423594881+402039578
1064+394660879+401250641+418299526+442318433+471060055+502758741+535799589
1050+568212971+597450343+622005785+641511047+656598584+668488253+678484002
1036+688190139+700022204+716033403+736966409+762614672+792091509+823891002
1022+855850190+886192263+913866215+937669520+956664580+970975241+981808298
1008+990910369+1000148220+1011019953+1024057578+1038332134+1052124364
996+1063700506+1071446838+1073741823+1069233013+1056890128+1036244111
984+1006149887+966802177+919551885+866840165+810805032+753803806+697823397
970+644488222+594601439+548663426+506813153+468801329+434016536+402189270
956+373303536+347456336+324993752+306703306+293288173+285068515+281774316
942+282461340+285750808+290337177+295048680+299272147+302599469+304709711
928+305014084+303546789+299734570+292938489+282652049+269022960+252758151
914+235071720+217153228+200009915+184119478+169384042+155735615+143194409
900+131531657+120393096+109444267+98354669+86886534+75084710+63174263+51635409
884+41322636+33136665+27822640+25906810+27869803+33800803+43298281+55629440
868+69259609+82599240+94578194+104047694+109812466+111649555+110345967
854+107167797+102993499+98502381+93780900+88763533+83232672+77121251+70464242
838+63427512+56106417+48835931+41801619+34898149+28111172+21472267+15268680
822+10067393+6127623+3199257+1136949+0-2357576-4035072-5213012-6023164-6325119
802-6014421-5189045-4139376-3275272-2572509-1909195-1094928+0+899026+2675322
782+5641079+9994720+16048435+23871041+33079370+42989228+52711926+60854179
766+66392806+69192747+69405469+67004689+62238823+55858054+48646097+41061003
750+33555679+26473330+20127123+14419851+9869227+6780857+5522272+6044818+8065054
732+11545591+16427898+22726480+29974234+37500953+44882891+51636078+57936717
716+63683076+69219235+74348414+78746029+81542730+82417069+81003366+77372289
700+72233286+65368596+57695811+51111783+47177053+45989238+45964551+45440771
684+43933257+42631006+42112215+42268156+42128313+41024795+39300804+37679729
668+36446191+34977765+32358041+29659780+26256237+22021969+18058077+15226043
652+13372085+11938169+10654434+9850094+7717942+4981828+2560012+834016+0
634-2980671-5749136-8533545-10647696-11462991-10410596-7300933-2787905+2461726
616+7430336+11027468+13073112+13178341+14269722+13819077+10880785+6106484+0
##END=
