##TITLE= Carolina Isabel
##JCAMP-DX=4.24
##DATA TYPE=INFRARED SPECTRUM
##ORIGIN= Exported PE Spectrum Data File
##XUNITS=1/CM
##YUNITS=ABSORBANCE
##RESOLUTION=8
##FIRSTX=3030
##LASTX=600
##DELTAX=-2
##MAXY=0.30734396
##MINY=-0.0033796132
##XFACTOR=1
##YFACTOR=2.8623637e-010
##NPOINTS=1216
##FIRSTY=0.00040709972
##XYDATA=(X++(Y..Y))
3030+1422250+460826-186578-215939+298610+1308762+2842002+4961217+7345308
3012+9591963+11314698+12141185+11904005+10609820+8518925+5922433+3354678
2996+1290020+0-432505+0+912853+2622391+5078271+8211334+11994093+16498987
2976+21798535+27938106+34905179+42707721+51477309+61378841+72056702+82924890
2960+93351618+102769627+110787484+117302295+122629304+127441997+133005171
2946+140463681+150440620+163315785+179063353+197263496+217302803+238337060
2932+259377123+279371451+297096426+311273454+320720641+324448842+322171107
2918+314175193+301563551+285883763+268992018+252291042+236901952+223292834
2904+211629082+201538342+192661616+184688607+177479017+170949942+164956422
2890+159264038+153750319+148576442+143963109+140060302+137111632+135370287
2876+134754273+134872083+135250161+135555382+136131310+137884187+141996348
2862+149409905+160151903+172913344+185263338+194120372+196687034+191464833
2848+178981464+161469189+141745463+122571467+105664741+91810348+80853334
2834+72139033+65032714+59029629+53901980+49427345+45448741+41828706+38587659
2818+35777257+33364573+31265921+29316769+27517131+25775395+24063632+22382701
2802+20748402+19308178+18011651+16833804+15765086+14844619+13992453+13174868
2786+12464719+11785818+11114817+10460892+9887775+9372118+8933105+8494912
2770+8103364+7801787+7599733+7470991+7411371+7378821+7303387+7192124+7064632
2752+6911305+6741750+6612162+6532134+6482106+6386252+6280833+6110014+5949608
2734+5825447+5773740+5791179+5844423+5836028+5683964+5411527+5184914+5115715
2716+5180619+5225962+5128027+4903496+4607320+4370699+4228630+4174840+4196028
2698+4279258+4339997+4361602+4351125+4418958+4600474+4736595+4704475+4581551
2680+4510699+4573104+4680905+4802047+4868200+4950610+5046333+5057929+4953343
2662+4762117+4538837+4335533+4158481+4013900+3875983+3732248+3592249+3442267
2644+3203147+2819929+2360092+1871922+1558267+1545708+1511492+1163270+630121
2626+88656-196691-188010-28553+102153+82943+0-218256-378611-561051-711007
2604-749752-603596-454526-377908-428743-539551-688674-757821-693294-444686
2584-141925+157491+291986+229918+0-247383-329428-284866-306522-413555-542245
2562-528918-344421-112446+37066+227810+513509+951221+1321881+1288563+838774
2542+364413+35400+0+42285+336951+644112+780923+706596+636017+517960+390741
2520+238118+48415-100460-258914-341154-275963-129144+20576+73273+63499+0-69055
2496+31392+266776+552554+785010+988742+1202470+1318744+1284255+1024455+686775
2476+374083+202574+153092+91520+77021+100005+379536+724452+978994+1161487
2456+1196965+1098339+793131+425881+243545+185733+253280+326657+350474+180631
2436-29191-120737-15721+58488+57317-24232+0+32446+61989-73402-261686-341258
2412-311728-263456-205593-207298-96555-42030+0-192383-421833-629626-924462
2390-1296768-1637830-1511074-1384317-1257560-1130804-1004047-877290-750533
2372-623777-497020-370263-243506-116750+10006+136763+263519+390276+517033
2352+643790+770546+897303+1024060+1150817+1277573+1404330+1531087+1657844
2334+1784600+1911357+2038114+2164870+2291627+2418384+2545141+2671897+2798654
2316+2925411+3052168+3178924+3305681+3432438+3559194+3685951+3812708+3939465
2298+4066221+4192978+4319735+3904121+3284021+2735554+2367003+2125885+1931419
2280+1637416+1353409+1217665+1398440+1755382+2121486+2286435+2144854+1925816
2262+1777995+1642251+1652689+1860951+1985502+1862669+1526186+1297979+1311332
2244+1151433+1260575+1477999+1652110+1730433+2000332+2632562+3490929+4244352
2226+4560897+4537184+4438506+4544732+5007042+5565556+5792559+5675550+5508987
2208+5537333+5727271+6232893+7089184+7973796+8743878+9346538+9163727+8925531
2190+8649853+8340440+8486648+8093525+7273102+6703812+7054507+7758779+8440986
2172+9186079+9602160+10068218+10074908+9901681+9589354+8852225+8059700+7664078
2154+7547492+7325538+7041531+6977420+6935383+7226939+7784620+8680470+9154857
2136+8480616+7392402+6778132+6300049+6325896+6855258+8034314+9121325+9831018
2118+10160057+10303349+10443309+10676559+10884821+11173878+11329248+11602889
2102+12127253+12561659+12432162+11961992+11569702+11291525+11007934+10996299
2086+11408625+12152469+12847170+13263251+13378639+13053818+12785220+12507459
2070+12254264+11859058+11346408+11081558+11354790+11643430+11576404+11221597
2054+11000060+11189574+11465721+11491568+11109273+10674503+10620388+11118514
2038+11320528+10342679+8674314+7414930+6341709+5444656+4981565+5007829+5255656
2020+5447675+5753808+6164468+5904616+5110014+4223372+3804428+3756976+4102674
2002+4952302+5648668+5622450+4957371+4510939+4224017+3918769+3890059+4619326
1984+5858771+6929962+7214432+6303218+4303348+1592145+0+393982+1437243+2122755
1964+1886199+946223+141184+0+668346+1881846+2523537+2442228+2085637+1508727
1944+806465+248295+595541+1462954+2171697+2185350+1614686+887852+467118+646110
1924+1486452+2158546+2227166+1919719+2031659+1944102+1725363+1531190+1532765
1906+1528086+1251041+867373+584082+249558+0-7535+196073+411350+550823+809412
1884+1101736+1200811+1288231+1485593+1603415+1378482+933228+564612+364243
1866+295070+300029+393273+342841+65842+0+273205+607632+697173+633870+539747
1844+289864+0-72491+32426+9078-164199-368296-449957-470391-304244+158845+506150
1820+439488+220398+193718+179525+0-422347-443216-347473-395413-557056-779497
1798-1158532-1675418-2057785-2179023-2082448-1847603-1449502-1041828-830307
1780-772463-523458+0+395765+1196347+2820286+5187628+8402488+13026278+19918999
1760+30051035+43314526+58869437+76700782+96798981+118437714+139129385+154288648
1744+161159712+160478911+154126159+143864431+130896042+116166395+101886954
1730+90888892+83479148+78772734+76086193+74962254+75235576+78165571+84666808
1714+92601956+98832917+102226860+103155292+101845606+98658051+95136485+93725597
1698+95595267+100091611+106200115+112786729+118649932+124566443+132868920
1684+144774721+158441350+170153062+179784499+189216030+199371805+210913597
1670+224124190+237582596+250230966+262768945+275732141+287609621+296998269
1656+304751823+312802763+321423437+328361540+332553013+334990335+336075373
1642+335748130+334248547+331662389+327890511+323244042+317493117+310414065
1628+301968544+291654341+279579712+266905756+254252623+241203868+227662011
1614+214274652+201695247+190025000+178667939+167520780+157199901+147867724
1600+139084054+130704348+122963510+115751590+109028191+103049027+97965693
1586+93522905+89466173+86018323+83258483+81112106+79632084+79127854+79668564
1570+80955578+82676556+84642002+86605782+88553320+91986412+99068223+108219052
1554+115628197+120738836+124849110+128123526+130068565+130936622+131336552
1540+131263787+130507175+128778519+126072821+122609977+118695275+114469040
1526+110099121+105980335+102356734+99464040+96812483+93285933+88558265+83048048
1510+76154729+67278173+57370016+49085266+43451370+38601676+33263045+27938574
1494+23053481+18424100+14585600+12310130+11606826+11911384+13319592+16241673
1478+20591002+27537030+40850505+61377669+84057992+104157440+120814334+134458058
1462+144832064+152224146+158353475+163558653+166093415+165522966+163337441
1448+160610516+158086386+156149924+154670721+153480576+152408708+151400535
1434+150436534+149446269+148501008+147844337+147813648+148454312+149838350
1420+152151980+154944942+156954130+157289078+156068946+153810551+150904517
1406+147793606+144756383+141849126+138922684+135862166+132934501+130619440
1392+129364325+129619310+131727619+135710856+140882313+146230354+151103591
1378+155033130+157693237+159422973+160739960+161692144+162239935+162287933
1364+161770389+160888823+159930652+158862923+157704013+156503873+155428647
1350+154698287+154457670+154646045+155184231+156046873+157025711+157655937
1336+157383278+155944473+153302508+149629750+145287749+140693365+136251801
1322+132195498+128581879+125430986+122624905+120064152+117729960+115535675
1308+113473022+111437830+109407245+107225455+104699269+101774520+98637761
1294+95523101+92671208+90267881+88415936+87051289+85940690+84786335+83326316
1278+81546421+79583721+77830897+76549128+76027419+76266578+77062168+78090957
1262+79122271+80155224+81293987+82772175+84613499+86875070+89570994+92491422
1246+95319784+97586352+98837563+98715641+97065295+93945194+89523230+83961357
1230+77426633+70196401+62559251+54945866+47852211+41733542+36916737+33602170
1214+31712769+30977801+30782189+30481601+29457211+27513643+24603054+20931155
1198+16649515+12182572+7867615+4161149+1398381+0-103726+1711620+5625593
1180+11818082+20564374+32123071+46885711+65278732+87612381+113959591+144084198
1164+177199070+211826125+246034235+277932594+306046867+328863648+345199717
1150+354543203+356702582+351983517+341164811+325396315+306488483+286476585
1136+267979784+253573176+244713968+241407158+242363325+245618023+249310434
1122+252375195+254609123+256494879+258794193+262336647+267959819+276051418
1108+285814707+295562613+303371844+307892616+309186958+308845842+309543822
1094+314039996+324152314+340745346+363691208+391947523+423787993+456664227
1080+487146557+509973308+519119439+510751225+485931137+451738827+419067861
1066+396819902+389231765+395968998+413350384+437866786+467158892+499330847
1052+532652263+565178271+594394944+619086654+639090613+655075571+668069846
1038+679175475+689828347+702426558+719074173+740681496+766982868+797099588
1024+829516012+862074452+892993296+920850138+944514048+963109917+976968839
1010+987395516+996076448+1004857333+1015107425+1027646133+1041618335+1055136896
996+1066081350+1072837767+1073741823+1067772121+1053874467+1031680700
984+1000405252+960331532+912737898+859848933+803704826+746672334+690870931
970+637784142+588198577+542387493+500412163+462112143+427085172+395244676
956+366419799+340633133+317976198+299351957+285525520+276965729+273423170
942+274047878+277473304+282324728+287279906+291681541+295205671+297392979
928+297715693+296248828+292471848+285762024+275790447+262435819+246409111
914+228679919+210679553+193536701+177766591+163401187+150248549+138190033
900+127017717+116390145+105788446+94883088+83421792+71536060+59450422+47902500
884+37640174+29702175+24737001+23247231+25489878+31379201+40567760+52160609
868+65056649+78036347+89698747+98915261+104457195+106255519+104989394+101943685
852+98004282+93787872+89385716+84760800+79778916+74141506+67766577+60749396
836+53173311+45654335+38411843+31694574+25253374+19016245+13082775+7916394
820+3991515+1333594+0-2438283-4456348-6241605-7650008-8730179-9218127-8971420
800-8072102-6580978-5018637-3620854-2552032-1496954+0+1023114+2965329+5760946
780+9868448+15673072+23380085+32620182+42742366+52682551+61033013+66870955
764+70200488+71135310+69541682+65421790+58975488+50933684+42207148+33855072
748+26377587+20050760+14677289+10527410+7806862+6627623+7142642+9104067
732+12375294+17047896+23316469+30647044+38516534+46310590+53584941+60064665
716+65953832+71240313+75742214+79450737+81842324+82550586+80715456+77209027
700+72863771+68099181+63236304+58580829+54265560+50620445+47734974+45575830
684+44170447+43329851+43231408+43441986+42979911+42175965+41484049+40784585
668+39311370+35780368+31388103+28058622+25017391+21154045+17104537+13019159
652+10094540+8014109+6851997+6253736+4778438+2971212+1764121+965537+0-4276953
632-8236139-11124682-11807070-10199282-7792285-4735280-866884+3701182+8418763
614+11082307+9755116+6800875+6146391+6939977+6412412+4220730+0
##END=
