##TITLE= Carolina Isabel
##JCAMP-DX=4.24
##DATA TYPE=INFRARED SPECTRUM
##ORIGIN= Exported PE Spectrum Data File
##XUNITS=1/CM
##YUNITS=ABSORBANCE
##RESOLUTION=8
##FIRSTX=3030
##LASTX=600
##DELTAX=-2
##MAXY=0.22761795
##MINY=-0.002727434
##XFACTOR=1
##YFACTOR=2.1198573e-010
##NPOINTS=1216
##FIRSTY=1.5258789e-005
##XYDATA=(X++(Y..Y))
3030+71980-939398-1702220-1904945-1444665-321942+1440730+3916457+6731842
3012+9451627+11559018+12626632+12366547+10904729+8588145+5872858+3300970
2996+1271745+0-407981+0+738536+2468487+5224157+8998798+13651261+19105066
2976+25329285+32187233+39860617+48541163+58506124+69735203+81820753+94017647
2960+105629139+116135621+124947194+132047548+137743162+142944456+149002221
2946+157207584+168472671+183197872+201004728+221269035+243429010+266720406
2932+290129351+312508078+332303389+348122352+358813847+363371835+361222725
2918+352691553+339050871+322054742+303649304+285359200+268311863+253112956
2904+239962675+228595012+218726582+210324749+203266360+196982883+190816375
2890+184121824+176963882+170169796+164510523+160212128+157268986+155659165
2876+155115553+155243381+155528648+155723958+156167262+157908461+162354542
2862+170501422+182371593+196601929+210407115+220341129+223399904+218069041
2848+204651084+185473018+163556328+142037779+122912556+107159739+94685960
2834+84744424+76769411+70190141+64581480+59572279+54940957+50594200+46570229
2818+43059680+40077736+37577160+35385311+33452142+31669102+29880455+28076626
2802+26231745+24403172+22639831+21021014+19604060+18485168+17557473+16732687
2786+16001251+15253507+14497890+13809192+13108667+12417720+11740269+11108368
2770+10617054+10289382+10079803+9923084+9845638+9799139+9691907+9558807+9355976
2752+9188010+9051536+9020220+9006320+8966569+8761488+8456310+8117391+7878570
2734+7796643+7815377+7795290+7727422+7577452+7302078+7013770+6808690+6759941
2716+6793858+6801889+6710965+6503072+6312613+6196383+6127953+6064583+6005133
2698+5933328+5887954+5889817+5913611+6089239+6381272+6625506+6602608+6467820
2680+6320661+6277537+6242847+6307692+6402342+6540855+6665854+6761628+6810166
2662+6751295+6597951+6436733+6271579+6033883+5629152+5045613+4531242+4303668
2644+4248171+4158934+3954416+3621683+3196145+2843168+2465447+1982005+1549737
2626+1305855+1279600+1309018+1201768+815050+334982+0-232845-210369-171602
2606-149144-185714-120517-105931-154873-233074-260664-198841+19331+301593
2586+456765+442689+365613+305406+224411+0-192796-241632-282033-380918-640072
2564-886853-887890-649368-246078+140358+378880+529677+865485+1327259+1498862
2544+1300442+870898+290083+0-127599+13619+281349+405680+374821+360815+313640
2522+140499-28143-348065-633675-801755-861302-639685-359013-125016-24856-3997+0
2498-164230-173263-23143+193895+410925+598723+803381+1145824+1434281+1534343
2478+1383608+1128277+944354+768876+552338+318376+231186+536504+895817+1218015
2458+1422673+1440080+1382132+1320239+1225176+1163845+1102523+1065944+958501
2440+772900+495075+196997+23768-49371-101696-137150-172050+0+186593+427181
2418+431012+388730+442619+542049+595375+391138+21571-144979+0+179898+139919
2396-86758-471456-951189-1471974-1992750-2443242-2541143-2274082-1973842
2378-1976144-2504801-3231967-3578425-3133662-2307629-1311767-924355-1461448
2360-2470349-3051867-2143732-874570-114893-705409-1639518-2602307-3163018
2342-2788549-1466527+390294+1717940+1591360+735417+219130+859027+2679850
2324+4746981+5898050+5853572+5191076+4441978+3717624+3126555+2767725+2330168
2306+1830752+1526470+1697933+2155067+2459244+2585156+2474884+2389917+2524265
2288+2869501+3351941+3610568+3392887+2972200+2552075+2230922+2071726+2090231
2270+2224579+2267826+2178923+2031536+1806553+1572565+1773270+2419915+3179029
2252+3453963+3323446+3308772+3261483+2940893+2752454+2916044+3653798+4545063
2234+5332857+5835542+5936711+5855681+5956850+6471906+6722097+6698988+6721992
2216+6810790+6770810+6727466+7114307+7931343+8413221+8829304+9079495+9412351
2198+9981392+10819797+10983387+10666171+10091963+9688146+10166096+10569808
2182+9970857+9658702+10330653+11260158+12156484+13098361+13485764+13056079
2166+11587742+10522044+10135106+9905054+9630014+9131723+8241477+7421524+7048073
2148+7173986+7411806+7574833+7973484+8962597+9605306+9132329+8345554+7869195
2130+7640267+7836473+8474121+9302403+9944550+10434300+10853195+11309767
2114+11671865+11954672+12204872+12496115+12874521+13500359+14379253+14857194
2098+14263304+13520955+13329142+13446620+13130529+12868423+13085444+13773141
2082+14713330+15708067+16582462+16927690+16892771+16485018+15854576+14851860
2066+13730490+12919535+12591634+12523547+12233323+12037574+11800774+11811406
2050+11730938+11556558+11018903+10362030+10232638+10981067+11865584+11344246
2034+9168477+6354446+3671442+2201979+1774544+2400944+3327075+4121617+4917284
2016+5445274+5337813+4417200+3493784+3275541+3139401+2970082+3637534+4768359
1998+5379013+4996566+4679912+4477977+4431812+4959802+5898305+6910483+7003780
1980+6399768+5181112+3823556+1878349+674876+494873+379539-237968-798117-573794
1960-173448+197647+569305+916219+691228+220492+0-28573+28328+154961+1221275
1938+2750398+3744731+3916361+3286077+2623739+2083430+2361334+3237012+4051394
1920+4121230+3601166+3146896+2660010+2046596+1845944+2095177+2369145+2295583
1902+1980775+1772250+1387711+1027915+982471+1260375+1465174+1485524+1759492
1884+2205538+2450826+2626955+2900922+3097286+3003480+2692046+2340123+1922968
1866+1477133+1227557+1255780+1300873+1038925+834337+924426+1137098+1173756
1848+1067578+924286+502632+0-184448+80978+276674+255867+59046-190634-497675
1826-612956-334595+25306+20807-110219-52860+0-426881-837446-1002275-1023143
1804-1065381-1188587-1365788-1780298-2280847-2658234-2687537-2511585-2294581
1786-1863877-1288658-988427-951374-650572+0+392447+1235324+3035323+5740136
1766+9303089+14366371+21880366+32877530+47266202+64252341+83955743+106226253
1750+130061202+153007090+170296904+178804563+178961387+172872237+162482827
1736+149025260+133411640+117805911+105372938+96969725+91721844+88827380
1722+87727361+88108552+91301481+98358289+107148808+114384433+118772909
1708+120561661+120121265+117671616+114860942+114269846+117328928+123366202
1694+131224915+139676340+147495117+155582141+166466274+181264896+197671827
1680+211538080+223046399+234620530+247129280+261129933+276707967+292394533
1666+307238125+322153153+337648521+352088929+363896996+374000593+384433162
1652+395159276+403356520+408000864+410669124+411972572+411880839+410697031
1638+408380658+404417702+398820604+391898619+383857566+374398839+362759335
1624+348862575+334076746+319265577+303961266+287846631+271688679+256536763
1610+242606263+229044098+215602821+202963466+191393693+180490862+170212235
1596+160827176+152131552+144020189+136744488+130556365+125178581+120274293
1582+116162350+113007520+110633788+109049010+108546202+109289553+110932657
1568+113260136+116038617+118946999+122105045+127309485+136553818+147590346
1554+156390988+162628457+167911626+172462040+175684212+177731080+179031716
1540+179135117+177827030+175302027+171896953+167907022+163494224+158750204
1526+153770562+149101897+145037191+141699036+138424408+133986867+128216004
1512+121616806+113353064+102311334+89362127+78026834+70203409+63888758+57094988
1496+49982368+43160480+36814337+31499537+27692368+25652669+24982283+25895462
1480+28804407+33479680+41161815+55789467+78342275+103386275+125915465+144768038
1464+160328639+172296412+181053753+188402963+194613439+197676467+197098867
1450+194488388+191114243+187844131+185393903+183949728+183066775+182071915
1436+180710406+179189752+177697779+176384613+175520780+175472910+176203327
1422+177718779+180148042+183005251+184993636+185350637+184160643+181925248
1408+178962740+175681382+172388777+169161404+165850224+162305126+158831446
1394+156025270+154448382+154547847+156629018+160586158+165766417+171119879
1380+176053831+179991868+182563968+184244187+185520079+186468669+186981458
1366+186860483+186016332+184744798+183374291+181959921+180516291+179092361
1352+177791585+176834402+176378269+176487856+177089496+178120188+179355592
1338+180114126+179812638+178169393+175186079+171078072+166257574+161171086
1324+156322470+152037887+148256568+144873425+141717470+138709975+136000522
1310+133646472+131497679+129334826+127066253+124590174+121753632+118546503
1296+115120622+111702614+108556781+105870350+103713684+102062004+100684186
1282+99359792+97823955+95981077+93932944+91990531+90465379+89735384+89868027
1266+90705852+91899642+93149104+94328238+95572639+97184814+99263736+101845395
1250+104868496+108083919+111141885+113530098+114874596+114781739+112864069
1236+109114839+103829281+97354888+89958846+81885177+73318893+64776227+56795345
1220+49878421+44371861+40468548+38119560+37009981+36552161+36033046+34790191
1204+32465946+28873013+24337624+19163972+13882912+8957255+4777268+1643807+0
1186-158756+1772127+6026098+12792032+22302248+34900270+50950569+70681421
1170+94445381+122403914+154375312+189565612+226390090+262768029+296619384
1156+326259859+350168940+367252794+376962644+379157304+374150528+362698742
1142+345978303+325915316+304810302+285399039+270265013+260954042+257472384
1128+258496767+261961766+265957620+269223513+271482280+273300696+275511102
1114+278960882+284689323+293149078+303525834+314035339+322344350+327018393
1100+328278996+327990302+328860638+333595378+344140311+361310767+384997160
1086+414207475+447002147+480638123+511722139+535085745+544561658+536269096
1072+510891379+475543797+441349060+417701645+409300586+415961396+433821288
1058+458972591+488967905+521841341+555909164+589072208+618761044+643649204
1044+663612832+679268328+691673536+702087970+712120008+724283970+740653013
1030+761988272+787871152+817110674+848008623+878597213+907449841+933568976
1016+955844407+973403444+986480656+996466019+1005017963+1013479440+1023008671
1002+1034234078+1046365423+1057888732+1067314070+1073156070+1073741823
990+1067708837+1054341103+1033253487+1003657087+965768827+920778702+870595383
976+816972688+761810290+707401505+655434848+606942503+562227928+521146703
962+483293344+448323097+416198917+386866748+360517297+337412019+318408457
948+304342888+295511036+291699280+292020169+295016734+299375300+303842365
934+307647583+310399493+311893470+311901694+310303894+306521942+299670110
920+289280596+275342644+258603683+240111327+221290527+203379637+187057339
906+172283214+158891300+146491962+134679713+123083369+111491559+99610106
892+87461011+74973384+62490221+50449659+39615294+30969052+25294209+23082327
876+25073418+31188155+41356317+54288372+68425570+82224763+94635560+104489369
860+110388166+112177375+110772424+107533699+103392971+99093626+94519330
846+89486686+83762392+77254153+70166734+62451173+54443158+46542024+39095792
830+32247369+25676745+19355767+13240643+8101716+4224728+1557874+0-2810006
812-4917080-6789059-8206733-8974827-8783630-7731973-6151148-4690736-3752111
794-3048054-2203340-1249602+0+650423+2077376+4695447+9124764+15610649+24061301
774+33803731+43798022+53341944+61573844+67793740+71705136+73172648+71272200
758+66395326+59184085+50762183+42393071+34927720+28445911+22595547+17246302
742+12622414+9245317+8113596+9118297+11512484+14695150+18863539+24402434
726+31406732+39696623+48193387+56141372+63525254+69967276+75570209+80035024
710+83466809+85400998+85975504+84877524+81723678+76800622+70964386+65316466
694+60896779+57717557+55640603+53360010+50401860+46685598+42921044+39782311
678+38048388+37457081+38050707+38943502+38916790+37067586+34126799+30387551
662+27294368+24312599+21146874+18776937+17118298+14697189+11492099+7626323
646+5350228+3522956+1375076-173272-766828+0-1950917-4588460-7887391-11113710
626-12866120-12485552-9297262-4001230+1564165+7727334+12060631+13769951
610+13563992+13179769+12376036+10343508+6572838+0
##END=
