##TITLE= Carolina Isabel
##JCAMP-DX=4.24
##DATA TYPE=INFRARED SPECTRUM
##ORIGIN= Exported PE Spectrum Data File
##XUNITS=1/CM
##YUNITS=ABSORBANCE
##RESOLUTION=8
##FIRSTX=3030
##LASTX=600
##DELTAX=-2
##MAXY=0.25079921
##MINY=-0.0044984818
##XFACTOR=1
##YFACTOR=2.3357497e-010
##NPOINTS=1216
##FIRSTY=-0.0044984818
##XYDATA=(X++(Y..Y))
3030-19259263-18887714-18120120-16717117-14649615-11809925-8229180-3793568
3014+966127+5515552+9175914+11435315+12085014+11271997+9337701+6685316+3880842
2996+1510691+0-528741+0+520129+2083962+4643013+8065097+12325717+17549912
2976+23744317+30918120+39094796+48320264+58836469+70763333+83701747+96904532
2960+109479053+120717940+130019469+137315744+143061536+148242349+154468908
2946+163099302+174999627+190604716+209945702+232651037+258114402+285413053
2932+313195023+339900593+363526122+382531796+395536048+401189463+398690252
2918+388448753+371917983+351300693+329067577+307099852+286731622+268619731
2904+252918820+239244072+227192806+216268944+206170857+196768404+187951853
2890+179690072+171985104+164939531+158722271+153657949+150135960+148540102
2876+148903037+150633250+152968760+155372659+158397677+163514694+172279315
2862+185676040+203270019+222931516+241240027+254107500+257773030+250424298
2848+233085105+208988123+182227018+156494305+133965175+115578706+101113381
2834+89777652+80642631+72952463+66272314+60378133+55187750+50572041+46450880
2818+42854888+39775389+37139910+34812167+32753915+30870209+29066631+27306944
2802+25504897+23665593+21966640+20565232+19400635+18463152+17571076+16671871
2786+15778279+14885198+14037540+13303694+12666818+12119257+11491567+10732713
2770+10054497+9589616+9337031+9184495+9000826+8780921+8597762+8506470+8379452
2752+8256517+8125927+8047394+7984682+7982705+7928653+7894523+7844570+7759402
2734+7570630+7322655+7102239+6966035+6897709+6762015+6543131+6292604+6197213
2716+6320275+6527038+6586815+6420499+6147515+5879125+5713830+5619986+5514403
2698+5436891+5406827+5479874+5647849+5855633+6043512+6112475+6079365+6030434
2680+5958025+6000450+6070434+6144501+6175171+6245666+6410578+6567836+6638841
2662+6559797+6319478+5981167+5646940+5344865+5062695+4734082+4409025+4151863
2644+3902357+3598241+3275242+2948159+2657313+2546627+2338460+1879703+1363274
2626+929524+776972+832156+894995+696525+318916+0-122057+21276+226875+335503
2604+381357+513463+590448+559236+414722+263047+224179+376189+598120+796573
2584+851103+750991+529922+235870+0-63093+107050+237880+108948-171052-337751
2562-168118+187784+466636+466317+419555+442697+651629+872299+802570+485313
2542+184371-54800+0+50271+143398+275328+341421+481006+821151+1026574+888009
2520+552936+171436+29298+68852+150750+344435+538120+666477+578933+344419+72137
2498-92471+24657+287752+558503+694500+749875+770545+741183+661820+617163+430113
2476+174147-47096-237209-304848-337257-270143-33588+218262+454308+556126+527785
2454+407083+86826-314067-560846-535583-337305-62471+192951+253430+301660+426939
2432+621134+662219+469555+146731+0+17049+137209+104243+1866+183270+475919
2410+653734+620783+316301+34785-78293+0+122903+380017+637147+729430+839405
2388+949380+1059356+1169331+1279307+1389282+1499257+1609233+1719208+1829184
2370+1939159+2049135+2159110+2269085+2379061+2489036+2599011+2708987+2818962
2352+2928938+3038913+3148889+3258864+3368839+3478815+3588790+3698766+3808741
2334+3918716+4028692+4138667+4248643+4358618+4468593+4578569+4688544+4798519
2316+4908495+5018470+5128446+5238421+5348397+5458372+5568347+5678323+5788298
2298+5898274+5944612+5800592+5499371+5056778+4679520+4394121+4177621+3926424
2280+3797707+3787396+3834255+3816288+3698800+3253655+2648262+2218938+2193316
2262+2617847+2992354+3210688+3406574+3353902+3031246+2475869+2233340+2105134
2244+1775341+1829846+2405949+3489365+4542662+5347920+5879620+6300068+6629152
2226+6611185+6318648+5804604+5653431+6447468+7894770+8720442+8645322+8065950
2208+7517201+6965397+6913236+7196386+7693389+8316446+8935419+9367597+9834489
2190+9717000+9577056+10078142+10319442+10038126+9230117+8422100+8255616+9057820
2172+10634754+12212710+13279795+13101062+12945296+13006955+12530677+11057650
2156+9311576+7590518+6750348+6656337+6661345+6849057+7509370+8112019+8513065
2138+8373631+7415574+6499869+6352779+6441488+6910923+7612576+8557682+9027118
2120+8898912+8763560+9088569+9744289+10416341+10859245+11054612+10960601
2104+11144748+11855077+12675646+12985344+12765782+12290015+11662676+10864356
2088+10469738+10706964+11336144+11794862+11971346+12010548+12240110+12869801
2072+13473472+13619333+13086915+12132431+11395355+11225299+11333401+11536424
2056+12074249+12520725+12857465+12649131+12365262+11947685+11633705+11741289
2040+12735901+13464093+12844913+11093233+9388499+7993558+7213619+6722541
2024+6220235+5899628+5344754+5570233+6352532+6559128+5905242+5032408+4334129
2006+4116608+4478355+5411213+6568115+6843100+6303034+5983440+5682219+4734369
1988+3942174+4080890+5394993+6790237+7553134+6843116+4764281+2159257+753599
1970+1167412+1996147+2447719+2197032+1837119+997970+16435+0+688367+1320586
1950+1557278+1563274+1384526+1213935+1280164+1886354+2605854+2932880+2822003
1932+2529952+2313428+2025461+2106992+2785152+3546494+3801559+3494700+2979619
1914+2374712+1901984+1553282+1367381+1267739+1111949+1155721+1384749+1326958
1896+1163520+1000075+998424+940625+845066+1205769+1883419+2376307+2574721
1878+2626149+2413708+2087973+1777541+1610021+1435347+1196375+1059469+1024134
1860+1034214+863121+877291+1181343+1439981+1344414+1056447+859317+477442+27680
1840+0+159163+291795+295806+228884+146643-116259-307719-141403+145862+180503
1818+158996+351851+484986+297106+0-346810-524179-629076-734483-828144-1189756
1796-1721831-2075787-2165883-2002326-1808657-1557827-1318217-1225601-1186063
1778-797944+0+803687+2296371+5004745+8643018+13262219+19789688+29656489
1760+44244207+63465049+85839457+111301085+140430714+172565425+203745204
1746+226597828+237034719+236171032+226944448+212159441+193627309+172680624
1732+152360672+136295135+124619293+116094465+110165371+106579379+105475819
1718+108756834+117616687+128007134+134740265+136620319+134733854+129817331
1704+122516367+114779038+109198526+107113528+108115748+110858818+114170966
1690+116961517+120035323+126385694+137726957+150959647+161275070+168815620
1676+176181098+184934794+196074462+209494456+223159938+235374442+247082661
1662+259477836+270439386+277508850+282845102+290961874+302328673+312172500
1648+317736887+319908888+319171278+316226803+312056423+307357843+303931580
1634+302471767+298825057+290861141+280965958+270422607+259187229+247915582
1620+236538306+224635860+212711979+201234159+190187091+179576898+169233117
1606+159267520+150255274+142098423+134076308+126263444+119152848+112654183
1592+106519411+100932774+95936124+91359491+86989062+83010086+79667540+77123720
1576+75611865+75080939+75358435+76222346+77364901+78488589+79398943+80294496
1560+83295829+91868854+103382112+111212552+115139183+117843466+119828655
1546+120465962+120546967+121535407+123172526+123567407+121583972+117672875
1532+112863003+107879112+102874806+97897039+93648589+90717399+89141238+87779432
1516+84755355+79753074+73440694+65738070+56864151+47670230+39651688+33460775
1500+27677647+21464278+15749523+10858009+6063974+2090102+0-718965-933702
1482-211387+2247694+6514008+14219694+30331643+55921149+83775655+107382890
1466+125894081+140230474+149977634+155882724+161454050+167354547+169506914
1452+166779138+161825630+156650638+152688265+149804826+146799921+143872065
1438+142066014+141375103+140962358+140011686+138254104+136293923+135039565
1424+134687538+135376695+137926623+141842297+144461157+143940709+140900062
1410+136697337+132429253+128815972+125788084+122991935+120197285+117307706
1396+114837683+112921377+111308230+110752056+112483895+116746620+122588425
1382+128521617+133611649+137457403+140009405+141667719+142688074+142938792
1368+142359683+141364082+140421559+139605129+138748348+137460306+135710890
1354+133957424+132629573+131727880+131121721+130730907+130649886+131237990
1340+132501279+133762527+134031108+132526191+129473805+125633921+121547560
1326+117497914+113828493+110649567+107986082+105751817+103687504+101592601
1312+99494094+97396607+95334878+93251682+91058756+88649434+85926778+82962686
1296+79978179+77248378+75022278+73432098+72631489+72487693+72714934+72845716
1280+72526385+71712475+70510175+69373743+68679260+68757474+69544589+70767081
1264+72062524+73258955+74377842+75592647+77170323+79286980+81954294+85205978
1248+88768478+92184023+94883489+96437178+96457752+94638927+91041978+85990510
1232+79856520+72914106+65402630+57572207+49842294+42746259+36729685+32061473
1216+28825354+26862094+25797625+25096507+24264223+22879753+20803702+18014666
1200+14760716+11160195+7567839+4279152+1645811+0-288740+1106192+4374719+9712790
1180+17274536+27297247+40025453+55739825+74724638+97245251+123448715+152934358
1164+184790662+217374721+248787005+277392773+301985003+321315304+334440066
1150+340935652+340780118+334496557+322968483+307410539+289290545+270450901
1136+252997959+239371760+231063089+228283208+229817503+233717866+238052553
1122+241682389+244369606+246644446+249284710+253108996+259029397+267570541
1108+277963811+288462696+296910442+301883600+303522010+303533334+304615442
1094+309425792+319724102+336166770+358553188+385938665+416672127+448438607
1080+478135543+501000687+511103526+504676584+482589496+451551057+422043181
1066+402519674+397105814+405420353+423953458+449334208+479477716+512656896
1052+547175761+580690763+610383105+634596132+653137881+666903156+677323476
1038+686146853+695304521+707169184+723786908+745366944+771267759+800467086
1024+831588970+862921126+892951269+920031035+942772670+960231991+972963196
1010+982727692+991482680+1000959839+1012208487+1025429199+1039652784+1053277197
996+1064642719+1072090654+1073741823+1067750672+1053016973+1029127775+995509423
982+952853404+903153853+849059520+792822149+736527618+682297016+631396058
968+584566309+541753160+502744265+467015540+433956042+403428960+375561440
954+350630069+328836954+310833803+297224956+288165534+283569794+282585899
940+283976270+286554779+289312938+291677060+293377735+294096972+293477512
926+291469819+287522246+280896261+271103949+258158039+242608771+225349259
912+207766684+191025164+175936249+162157960+149410072+137447164+126064544
898+115099916+104257235+93018539+81311835+69330043+57626370+46697978+37189431
882+29712661+24986235+23842627+26720212+33514874+43415097+55216984+67968667
866+80363603+91458598+100035467+104571749+105077142+102612190+98733517+94425051
850+90292215+86179283+81769317+76667291+70808389+64509550+57798843+50993143
834+44210474+37475270+30879396+24440205+18465959+13298607+9005004+5623877
818+2834841+972124+0-2087342-3575066-4706489-5668534-6296223-6405888-6019029
798-5292711-4447477-3473694-2457487-1374995+0+494292+1930150+4676697+8773616
778+14388945+21301056+28973680+37075524+45179345+52230340+57307166+59912852
762+59909535+57377278+52621920+46247610+39122611+31539238+24309104+18417155
746+14078194+10971326+9051512+8199962+8724302+10384786+13480425+18203056
730+24618642+32660709+41506670+50100509+58055303+65334943+72031679+77912909
714+82874902+86231851+88159768+88317663+87076192+84738385+81662650+77874887
698+72833212+66571757+60255629+55006744+51821216+50171960+49041750+47452143
682+45208819+43359945+42971300+42562176+40664881+37907105+37269336+39402421
666+40837258+38135112+32300261+26091885+21376846+18470999+15007384+11364565
650+8525131+6548218+6162061+4959378+2303612-350558-1361407+0-1719877-4665596
630-8334571-11626383-12399464-9722007-4142596+1040322+4763524+7550199+8743058
612+8391988+7414696+7748095+8569341+7413931+4707064+0
##END=
