2.0000	179
2.0074	164
2.0148	174
2.0222	143
2.0296	157
2.0370	155
2.0444	157
2.0518	177
2.0592	191
2.0666	169
2.0740	160
2.0813	164
2.0887	184
2.0961	163
2.1035	170
2.1109	165
2.1183	164
2.1257	177
2.1331	171
2.1405	178
2.1479	160
2.1553	160
2.1627	178
2.1701	165
2.1775	177
2.1849	158
2.1923	163
2.1997	181
2.2071	178
2.2145	180
2.2219	164
2.2293	174
2.2366	168
2.2440	202
2.2514	160
2.2588	194
2.2662	172
2.2736	170
2.2810	164
2.2884	179
2.2958	172
2.3032	156
2.3106	170
2.3180	171
2.3254	178
2.3328	182
2.3402	165
2.3476	180
2.3550	173
2.3624	169
2.3698	189
2.3772	175
2.3846	170
2.3919	179
2.3993	166
2.4067	169
2.4141	170
2.4215	189
2.4289	165
2.4363	172
2.4437	162
2.4511	185
2.4585	154
2.4659	168
2.4733	168
2.4807	171
2.4881	180
2.4955	175
2.5029	182
2.5103	174
2.5177	179
2.5251	143
2.5325	178
2.5399	172
2.5472	174
2.5546	180
2.5620	182
2.5694	168
2.5768	189
2.5842	161
2.5916	186
2.5990	169
2.6064	187
2.6138	157
2.6212	165
2.6286	166
2.6360	169
2.6434	174
2.6508	163
2.6582	176
2.6656	184
2.6730	168
2.6804	175
2.6878	161
2.6952	166
2.7025	196
2.7099	162
2.7173	155
2.7247	159
2.7321	142
2.7395	163
2.7469	185
2.7543	169
2.7617	181
2.7691	153
2.7765	169
2.7839	189
2.7913	161
2.7987	148
2.8061	181
2.8135	171
2.8209	181
2.8283	185
2.8357	162
2.8431	184
2.8505	171
2.8579	174
2.8652	157
2.8726	182
2.8800	157
2.8874	158
2.8948	161
2.9022	165
2.9096	179
2.9170	168
2.9244	180
2.9318	145
2.9392	172
2.9466	165
2.9540	189
2.9614	176
2.9688	151
2.9762	168
2.9836	182
2.9910	162
2.9984	153
3.0058	168
3.0132	166
3.0205	179
3.0279	166
3.0353	161
3.0427	155
3.0501	170
3.0575	167
3.0649	145
3.0723	156
3.0797	144
3.0871	168
3.0945	172
3.1019	158
3.1093	168
3.1167	172
3.1241	165
3.1315	147
3.1389	153
3.1463	168
3.1537	159
3.1611	145
3.1685	168
3.1758	160
3.1832	181
3.1906	180
3.1980	158
3.2054	188
3.2128	149
3.2202	131
3.2276	160
3.2350	182
3.2424	153
3.2498	164
3.2572	141
3.2646	143
3.2720	167
3.2794	170
3.2868	169
3.2942	159
3.3016	160
3.3090	163
3.3164	168
3.3238	173
3.3311	172
3.3385	172
3.3459	177
3.3533	165
3.3607	185
3.3681	173
3.3755	167
3.3829	147
3.3903	161
3.3977	155
3.4051	162
3.4125	154
3.4199	155
3.4273	139
3.4347	164
3.4421	186
3.4495	162
3.4569	132
3.4643	162
3.4717	143
3.4791	162
3.4864	143
3.4938	160
3.5012	139
3.5086	145
3.5160	138
3.5234	151
3.5308	141
3.5382	171
3.5456	177
3.5530	163
3.5604	161
3.5678	144
3.5752	156
3.5826	169
3.5900	142
3.5974	161
3.6048	144
3.6122	140
3.6196	154
3.6270	141
3.6344	142
3.6417	155
3.6491	155
3.6565	158
3.6639	147
3.6713	138
3.6787	145
3.6861	139
3.6935	171
3.7009	165
3.7083	155
3.7157	162
3.7231	163
3.7305	133
3.7379	135
3.7453	155
3.7527	136
3.7601	143
3.7675	174
3.7749	126
3.7823	137
3.7897	143
3.7970	135
3.8044	142
3.8118	147
3.8192	146
3.8266	133
3.8340	125
3.8414	145
3.8488	146
3.8562	130
3.8636	128
3.8710	145
3.8784	142
3.8858	133
3.8932	134
3.9006	153
3.9080	140
3.9154	149
3.9228	135
3.9302	139
3.9376	128
3.9450	143
3.9523	143
3.9597	142
3.9671	130
3.9745	121
3.9819	147
3.9893	139
3.9967	112
4.0041	133
4.0115	119
4.0189	140
4.0263	139
4.0337	124
4.0411	129
4.0485	113
4.0559	124
4.0633	130
4.0707	135
4.0781	142
4.0855	127
4.0929	132
4.1003	135
4.1076	108
4.1150	107
4.1224	141
4.1298	134
4.1372	114
4.1446	124
4.1520	117
4.1594	135
4.1668	119
4.1742	121
4.1816	116
4.1890	123
4.1964	122
4.2038	131
4.2112	127
4.2186	112
4.2260	142
4.2334	120
4.2408	130
4.2482	104
4.2556	109
4.2629	122
4.2703	129
4.2777	123
4.2851	130
4.2925	120
4.2999	124
4.3073	112
4.3147	122
4.3221	108
4.3295	129
4.3369	127
4.3443	134
4.3517	133
4.3591	116
4.3665	119
4.3739	124
4.3813	124
4.3887	119
4.3961	106
4.4035	107
4.4109	124
4.4183	112
4.4256	110
4.4330	110
4.4404	109
4.4478	127
4.4552	115
4.4626	123
4.4700	124
4.4774	115
4.4848	97
4.4922	118
4.4996	100
4.5070	125
4.5144	120
4.5218	101
4.5292	107
4.5366	94
4.5440	137
4.5514	123
4.5588	102
4.5662	128
4.5736	112
4.5809	123
4.5883	121
4.5957	119
4.6031	118
4.6105	97
4.6179	119
4.6253	105
4.6327	119
4.6401	108
4.6475	124
4.6549	97
4.6623	139
4.6697	120
4.6771	107
4.6845	120
4.6919	92
4.6993	104
4.7067	109
4.7141	122
4.7215	105
4.7289	122
4.7362	110
4.7436	115
4.7510	96
4.7584	110
4.7658	109
4.7732	107
4.7806	117
4.7880	123
4.7954	125
4.8028	100
4.8102	96
4.8176	98
4.8250	104
4.8324	97
4.8398	121
4.8472	97
4.8546	94
4.8620	94
4.8694	123
4.8768	107
4.8842	89
4.8915	92
4.8989	123
4.9063	86
4.9137	111
4.9211	113
4.9285	123
4.9359	92
4.9433	108
4.9507	103
4.9581	92
4.9655	105
4.9729	105
4.9803	105
4.9877	85
4.9951	106
5.0025	107
5.0099	101
5.0173	107
5.0247	106
5.0321	107
5.0395	109
5.0468	88
5.0542	99
5.0616	87
5.0690	106
5.0764	106
5.0838	118
5.0912	96
5.0986	104
5.1060	107
5.1134	97
5.1208	104
5.1282	99
5.1356	112
5.1430	100
5.1504	105
5.1578	109
5.1652	100
5.1726	106
5.1800	79
5.1874	100
5.1948	99
5.2021	105
5.2095	69
5.2169	91
5.2243	107
5.2317	103
5.2391	91
5.2465	79
5.2539	92
5.2613	103
5.2687	92
5.2761	105
5.2835	106
5.2909	89
5.2983	108
5.3057	108
5.3131	109
5.3205	90
5.3279	88
5.3353	100
5.3427	97
5.3501	77
5.3574	105
5.3648	111
5.3722	91
5.3796	107
5.3870	106
5.3944	98
5.4018	89
5.4092	115
5.4166	104
5.4240	93
5.4314	108
5.4388	84
5.4462	107
5.4536	92
5.4610	126
5.4684	108
5.4758	92
5.4832	108
5.4906	100
5.4980	115
5.5054	107
5.5127	102
5.5201	98
5.5275	114
5.5349	97
5.5423	94
5.5497	109
5.5571	110
5.5645	94
5.5719	126
5.5793	118
5.5867	105
5.5941	120
5.6015	102
5.6089	113
5.6163	108
5.6237	129
5.6311	100
5.6385	111
5.6459	130
5.6533	120
5.6607	126
5.6680	131
5.6754	113
5.6828	128
5.6902	119
5.6976	123
5.7050	122
5.7124	140
5.7198	143
5.7272	159
5.7346	124
5.7420	174
5.7494	149
5.7568	118
5.7642	172
5.7716	186
5.7790	180
5.7864	213
5.7938	203
5.8012	220
5.8086	239
5.8160	250
5.8233	272
5.8307	278
5.8381	288
5.8455	308
5.8529	349
5.8603	327
5.8677	393
5.8751	389
5.8825	401
5.8899	463
5.8973	484
5.9047	504
5.9121	614
5.9195	555
5.9269	634
5.9343	693
5.9417	703
5.9491	882
5.9565	927
5.9639	979
5.9713	1151
5.9786	1258
5.9860	1436
5.9934	1672
6.0008	1774
6.0082	2042
6.0156	2405
6.0230	2704
6.0304	2837
6.0378	2972
6.0452	3083
6.0526	3210
6.0600	3069
6.0674	2938
6.0748	2668
6.0822	2389
6.0896	2214
6.0970	1944
6.1044	1622
6.1118	1428
6.1192	1135
6.1266	1024
6.1340	798
6.1413	649
6.1487	573
6.1561	443
6.1635	389
6.1709	344
6.1783	320
6.1857	247
6.1931	245
6.2005	236
6.2079	209
6.2153	222
6.2227	193
6.2301	191
6.2375	174
6.2449	190
6.2523	176
6.2597	158
6.2671	156
6.2745	143
6.2819	149
6.2893	144
6.2966	155
6.3040	166
6.3114	138
6.3188	134
6.3262	130
6.3336	150
6.3410	138
6.3484	143
6.3558	129
6.3632	148
6.3706	158
6.3780	150
6.3854	127
6.3928	122
6.4002	131
6.4076	123
6.4150	110
6.4224	124
6.4298	150
6.4372	125
6.4446	129
6.4519	103
6.4593	105
6.4667	123
6.4741	112
6.4815	97
6.4889	128
6.4963	106
6.5037	122
6.5111	118
6.5185	109
6.5259	138
6.5333	118
6.5407	101
6.5481	123
6.5555	102
6.5629	130
6.5703	109
6.5777	111
6.5851	102
6.5925	111
6.5999	107
6.6072	118
6.6146	113
6.6220	105
6.6294	117
6.6368	88
6.6442	109
6.6516	117
6.6590	121
6.6664	105
6.6738	102
6.6812	106
6.6886	106
6.6960	130
6.7034	125
6.7108	91
6.7182	105
6.7256	106
6.7330	118
6.7404	100
6.7478	98
6.7552	104
6.7625	97
6.7699	95
6.7773	110
6.7847	102
6.7921	100
6.7995	108
6.8069	96
6.8143	114
6.8217	107
6.8291	118
6.8365	100
6.8439	107
6.8513	104
6.8587	104
6.8661	101
6.8735	101
6.8809	108
6.8883	99
6.8957	123
6.9031	110
6.9105	97
6.9178	92
6.9252	97
6.9326	127
6.9400	93
6.9474	102
6.9548	97
6.9622	90
6.9696	91
6.9770	86
6.9844	109
6.9918	100
6.9992	100
7.0066	85
7.0140	92
7.0214	85
7.0288	99
7.0362	90
7.0436	98
7.0510	81
7.0584	82
7.0658	121
7.0731	86
7.0805	111
7.0879	104
7.0953	108
7.1027	77
7.1101	82
7.1175	89
7.1249	86
7.1323	100
7.1397	83
7.1471	113
7.1545	93
7.1619	94
7.1693	95
7.1767	94
7.1841	86
7.1915	94
7.1989	86
7.2063	90
7.2137	86
7.2211	98
7.2284	96
7.2358	91
7.2432	105
7.2506	85
7.2580	89
7.2654	91
7.2728	86
7.2802	72
7.2876	98
7.2950	96
7.3024	80
7.3098	83
7.3172	73
7.3246	82
7.3320	92
7.3394	80
7.3468	97
7.3542	77
7.3616	92
7.3690	85
7.3764	72
7.3837	84
7.3911	90
7.3985	89
7.4059	83
7.4133	93
7.4207	83
7.4281	83
7.4355	97
7.4429	103
7.4503	97
7.4577	69
7.4651	84
7.4725	89
7.4799	97
7.4873	81
7.4947	64
7.5021	82
7.5095	90
7.5169	91
7.5243	78
7.5317	69
7.5390	106
7.5464	88
7.5538	82
7.5612	103
7.5686	104
7.5760	80
7.5834	91
7.5908	83
7.5982	94
7.6056	95
7.6130	66
7.6204	85
7.6278	90
7.6352	78
7.6426	92
7.6500	93
7.6574	83
7.6648	83
7.6722	80
7.6796	75
7.6870	87
7.6944	70
7.7017	64
7.7091	79
7.7165	80
7.7239	73
7.7313	86
7.7387	80
7.7461	81
7.7535	77
7.7609	94
7.7683	80
7.7757	78
7.7831	87
7.7905	73
7.7979	94
7.8053	90
7.8127	68
7.8201	86
7.8275	68
7.8349	68
7.8423	79
7.8497	79
7.8570	84
7.8644	80
7.8718	82
7.8792	71
7.8866	82
7.8940	84
7.9014	104
7.9088	81
7.9162	76
7.9236	69
7.9310	90
7.9384	75
7.9458	82
7.9532	76
7.9606	81
7.9680	71
7.9754	80
7.9828	94
7.9902	81
7.9976	77
8.0050	69
8.0123	78
8.0197	70
8.0271	90
8.0345	76
8.0419	77
8.0493	83
8.0567	71
8.0641	67
8.0715	98
8.0789	85
8.0863	89
8.0937	86
8.1011	80
8.1085	69
8.1159	93
8.1233	74
8.1307	77
8.1381	71
8.1455	77
8.1529	74
8.1603	76
8.1676	77
8.1750	89
8.1824	73
8.1898	67
8.1972	86
8.2046	89
8.2120	70
8.2194	93
8.2268	75
8.2342	83
8.2416	66
8.2490	64
8.2564	80
8.2638	74
8.2712	75
8.2786	80
8.2860	73
8.2934	91
8.3008	94
8.3082	74
8.3156	84
8.3229	74
8.3303	59
8.3377	81
8.3451	88
8.3525	87
8.3599	81
8.3673	78
8.3747	79
8.3821	82
8.3895	80
8.3969	80
8.4043	70
8.4117	88
8.4191	75
8.4265	77
8.4339	82
8.4413	96
8.4487	70
8.4561	76
8.4635	98
8.4709	110
8.4782	94
8.4856	88
8.4930	100
8.5004	96
8.5078	87
8.5152	123
8.5226	106
8.5300	121
8.5374	118
8.5448	105
8.5522	103
8.5596	93
8.5670	103
8.5744	95
8.5818	91
8.5892	77
8.5966	62
8.6040	72
8.6114	81
8.6188	90
8.6262	70
8.6335	93
8.6409	89
8.6483	75
8.6557	57
8.6631	58
8.6705	64
8.6779	73
8.6853	79
8.6927	79
8.7001	67
8.7075	65
8.7149	57
8.7223	74
8.7297	76
8.7371	83
8.7445	78
8.7519	82
8.7593	94
8.7667	70
8.7741	72
8.7815	60
8.7888	72
8.7962	57
8.8036	73
8.8110	63
8.8184	73
8.8258	78
8.8332	79
8.8406	93
8.8480	83
8.8554	77
8.8628	73
8.8702	72
8.8776	77
8.8850	66
8.8924	67
8.8998	82
8.9072	83
8.9146	53
8.9220	85
8.9294	75
8.9368	85
8.9441	75
8.9515	69
8.9589	74
8.9663	83
8.9737	83
8.9811	62
8.9885	88
8.9959	83
9.0033	76
9.0107	76
9.0181	79
9.0255	61
9.0329	80
9.0403	64
9.0477	81
9.0551	75
9.0625	89
9.0699	71
9.0773	96
9.0847	75
9.0921	79
9.0994	70
9.1068	80
9.1142	74
9.1216	78
9.1290	81
9.1364	75
9.1438	64
9.1512	85
9.1586	78
9.1660	74
9.1734	78
9.1808	82
9.1882	88
9.1956	70
9.2030	76
9.2104	81
9.2178	84
9.2252	73
9.2326	87
9.2400	74
9.2474	78
9.2548	72
9.2621	78
9.2695	69
9.2769	80
9.2843	95
9.2917	54
9.2991	68
9.3065	91
9.3139	74
9.3213	73
9.3287	84
9.3361	71
9.3435	91
9.3509	79
9.3583	94
9.3657	83
9.3731	83
9.3805	68
9.3879	75
9.3953	78
9.4027	60
9.4101	80
9.4174	63
9.4248	93
9.4322	74
9.4396	74
9.4470	82
9.4544	73
9.4618	78
9.4692	71
9.4766	74
9.4840	68
9.4914	77
9.4988	59
9.5062	76
9.5136	88
9.5210	76
9.5284	83
9.5358	86
9.5432	79
9.5506	63
9.5580	75
9.5654	83
9.5727	75
9.5801	87
9.5875	84
9.5949	81
9.6023	77
9.6097	84
9.6171	74
9.6245	71
9.6319	73
9.6393	79
9.6467	80
9.6541	81
9.6615	80
9.6689	71
9.6763	85
9.6837	90
9.6911	71
9.6985	76
9.7059	66
9.7133	77
9.7207	76
9.7280	55
9.7354	75
9.7428	60
9.7502	74
9.7576	77
9.7650	76
9.7724	82
9.7798	87
9.7872	71
9.7946	84
9.8020	80
9.8094	68
9.8168	73
9.8242	86
9.8316	76
9.8390	81
9.8464	92
9.8538	83
9.8612	84
9.8686	73
9.8760	80
9.8833	73
9.8907	78
9.8981	78
9.9055	75
9.9129	80
9.9203	79
9.9277	69
9.9351	72
9.9425	78
9.9499	86
9.9573	67
9.9647	73
9.9721	81
9.9795	79
9.9869	88
9.9943	69
10.0017	79
10.0091	67
10.0165	82
10.0239	77
10.0313	79
10.0386	74
10.0460	79
10.0534	80
10.0608	82
10.0682	67
10.0756	79
10.0830	63
10.0904	73
10.0978	65
10.1052	68
10.1126	73
10.1200	67
10.1274	84
10.1348	80
10.1422	87
10.1496	71
10.1570	74
10.1644	77
10.1718	67
10.1792	89
10.1866	75
10.1939	80
10.2013	85
10.2087	73
10.2161	74
10.2235	81
10.2309	82
10.2383	82
10.2457	86
10.2531	97
10.2605	74
10.2679	97
10.2753	101
10.2827	76
10.2901	77
10.2975	76
10.3049	77
10.3123	86
10.3197	91
10.3271	69
10.3345	95
10.3419	74
10.3492	85
10.3566	81
10.3640	81
10.3714	79
10.3788	78
10.3862	72
10.3936	85
10.4010	96
10.4084	95
10.4158	72
10.4232	75
10.4306	88
10.4380	77
10.4454	73
10.4528	68
10.4602	90
10.4676	88
10.4750	66
10.4824	74
10.4898	78
10.4972	83
10.5045	75
10.5119	79
10.5193	82
10.5267	85
10.5341	86
10.5415	63
10.5489	83
10.5563	76
10.5637	79
10.5711	84
10.5785	73
10.5859	88
10.5933	77
10.6007	74
10.6081	84
10.6155	71
10.6229	85
10.6303	82
10.6377	74
10.6451	75
10.6525	83
10.6598	99
10.6672	85
10.6746	79
10.6820	82
10.6894	79
10.6968	66
10.7042	83
10.7116	65
10.7190	92
10.7264	87
10.7338	81
10.7412	75
10.7486	81
10.7560	96
10.7634	97
10.7708	75
10.7782	92
10.7856	95
10.7930	74
10.8004	76
10.8078	73
10.8151	90
10.8225	74
10.8299	85
10.8373	81
10.8447	87
10.8521	70
10.8595	79
10.8669	68
10.8743	68
10.8817	74
10.8891	98
10.8965	75
10.9039	88
10.9113	90
10.9187	98
10.9261	77
10.9335	85
10.9409	89
10.9483	86
10.9557	80
10.9631	86
10.9705	91
10.9778	90
10.9852	72
10.9926	83
11.0000	75
11.0074	65
11.0148	60
11.0222	83
11.0296	99
11.0370	87
11.0444	73
11.0518	83
11.0592	79
11.0666	83
11.0740	81
11.0814	73
11.0888	77
11.0962	79
11.1036	70
11.1110	87
11.1184	84
11.1258	97
11.1331	107
11.1405	88
11.1479	77
11.1553	94
11.1627	94
11.1701	73
11.1775	92
11.1849	75
11.1923	83
11.1997	70
11.2071	91
11.2145	88
11.2219	82
11.2293	89
11.2367	113
11.2441	97
11.2515	94
11.2589	93
11.2663	86
11.2737	76
11.2811	75
11.2884	85
11.2958	78
11.3032	92
11.3106	86
11.3180	70
11.3254	96
11.3328	81
11.3402	88
11.3476	92
11.3550	75
11.3624	88
11.3698	79
11.3772	97
11.3846	88
11.3920	69
11.3994	86
11.4068	95
11.4142	95
11.4216	73
11.4290	89
11.4364	83
11.4437	70
11.4511	76
11.4585	87
11.4659	106
11.4733	88
11.4807	85
11.4881	62
11.4955	80
11.5029	87
11.5103	86
11.5177	83
11.5251	90
11.5325	91
11.5399	74
11.5473	92
11.5547	85
11.5621	89
11.5695	84
11.5769	104
11.5843	71
11.5917	72
11.5990	114
11.6064	76
11.6138	99
11.6212	90
11.6286	77
11.6360	84
11.6434	92
11.6508	86
11.6582	97
11.6656	75
11.6730	99
11.6804	80
11.6878	98
11.6952	98
11.7026	95
11.7100	110
11.7174	104
11.7248	92
11.7322	86
11.7396	93
11.7470	99
11.7543	87
11.7617	92
11.7691	115
11.7765	89
11.7839	87
11.7913	94
11.7987	76
11.8061	86
11.8135	90
11.8209	108
11.8283	98
11.8357	83
11.8431	106
11.8505	98
11.8579	103
11.8653	93
11.8727	114
11.8801	118
11.8875	89
11.8949	108
11.9023	111
11.9096	102
11.9170	121
11.9244	114
11.9318	121
11.9392	133
11.9466	129
11.9540	131
11.9614	141
11.9688	147
11.9762	146
11.9836	166
11.9910	166
11.9984	189
12.0058	195
12.0132	241
12.0206	241
12.0280	257
12.0354	242
12.0428	253
12.0502	285
12.0576	271
12.0649	273
12.0723	255
12.0797	237
12.0871	262
12.0945	251
12.1019	242
12.1093	236
12.1167	217
12.1241	233
12.1315	183
12.1389	197
12.1463	182
12.1537	195
12.1611	183
12.1685	193
12.1759	216
12.1833	235
12.1907	226
12.1981	228
12.2055	275
12.2129	299
12.2202	347
12.2276	355
12.2350	393
12.2424	453
12.2498	525
12.2572	596
12.2646	631
12.2720	747
12.2794	829
12.2868	929
12.2942	933
12.3016	996
12.3090	1082
12.3164	1075
12.3238	1038
12.3312	1044
12.3386	1069
12.3460	1026
12.3534	924
12.3608	980
12.3682	877
12.3755	791
12.3829	733
12.3903	688
12.3977	592
12.4051	541
12.4125	437
12.4199	475
12.4273	457
12.4347	433
12.4421	434
12.4495	384
12.4569	458
12.4643	444
12.4717	428
12.4791	467
12.4865	441
12.4939	473
12.5013	498
12.5087	476
12.5161	462
12.5235	464
12.5309	437
12.5382	470
12.5456	413
12.5530	413
12.5604	355
12.5678	358
12.5752	326
12.5826	247
12.5900	252
12.5974	231
12.6048	238
12.6122	187
12.6196	206
12.6270	159
12.6344	153
12.6418	153
12.6492	138
12.6566	139
12.6640	125
12.6714	126
12.6788	118
12.6862	132
12.6935	99
12.7009	112
12.7083	113
12.7157	114
12.7231	114
12.7305	106
12.7379	124
12.7453	124
12.7527	117
12.7601	111
12.7675	108
12.7749	95
12.7823	108
12.7897	121
12.7971	98
12.8045	100
12.8119	109
12.8193	98
12.8267	100
12.8341	108
12.8415	107
12.8488	118
12.8562	115
12.8636	123
12.8710	105
12.8784	104
12.8858	102
12.8932	99
12.9006	102
12.9080	129
12.9154	107
12.9228	109
12.9302	89
12.9376	133
12.9450	71
12.9524	95
12.9598	107
12.9672	112
12.9746	101
12.9820	95
12.9894	87
12.9968	77
13.0041	92
13.0115	103
13.0189	100
13.0263	96
13.0337	95
13.0411	100
13.0485	103
13.0559	99
13.0633	106
13.0707	101
13.0781	108
13.0855	94
13.0929	106
13.1003	115
13.1077	97
13.1151	100
13.1225	120
13.1299	112
13.1373	104
13.1447	105
13.1521	100
13.1594	99
13.1668	120
13.1742	102
13.1816	104
13.1890	115
13.1964	113
13.2038	106
13.2112	108
13.2186	105
13.2260	112
13.2334	109
13.2408	107
13.2482	92
13.2556	95
13.2630	109
13.2704	118
13.2778	102
13.2852	110
13.2926	102
13.3000	108
13.3074	116
13.3147	102
13.3221	102
13.3295	101
13.3369	97
13.3443	113
13.3517	108
13.3591	111
13.3665	119
13.3739	107
13.3813	97
13.3887	80
13.3961	120
13.4035	107
13.4109	99
13.4183	110
13.4257	91
13.4331	100
13.4405	114
13.4479	129
13.4553	116
13.4627	98
13.4700	87
13.4774	99
13.4848	127
13.4922	111
13.4996	106
13.5070	90
13.5144	93
13.5218	83
13.5292	99
13.5366	111
13.5440	109
13.5514	113
13.5588	91
13.5662	109
13.5736	104
13.5810	112
13.5884	93
13.5958	105
13.6032	100
13.6106	111
13.6180	103
13.6253	100
13.6327	104
13.6401	97
13.6475	98
13.6549	107
13.6623	108
13.6697	115
13.6771	106
13.6845	98
13.6919	101
13.6993	126
13.7067	112
13.7141	100
13.7215	94
13.7289	114
13.7363	114
13.7437	108
13.7511	120
13.7585	93
13.7659	94
13.7733	74
13.7806	90
13.7880	96
13.7954	97
13.8028	109
13.8102	96
13.8176	88
13.8250	112
13.8324	104
13.8398	92
13.8472	105
13.8546	93
13.8620	106
13.8694	91
13.8768	88
13.8842	82
13.8916	96
13.8990	91
13.9064	108
13.9138	99
13.9212	105
13.9286	88
13.9359	99
13.9433	103
13.9507	103
13.9581	88
13.9655	103
13.9729	98
13.9803	99
13.9877	96
13.9951	108
14.0025	101
14.0099	99
14.0173	97
14.0247	116
14.0321	93
14.0395	111
14.0469	81
14.0543	104
14.0617	110
14.0691	88
14.0765	103
14.0839	109
14.0913	94
14.0986	97
14.1060	93
14.1134	97
14.1208	112
14.1282	109
14.1356	92
14.1430	103
14.1504	99
14.1578	85
14.1652	99
14.1726	88
14.1800	101
14.1874	96
14.1948	111
14.2022	97
14.2096	100
14.2170	111
14.2244	104
14.2318	96
14.2392	102
14.2466	83
14.2539	105
14.2613	110
14.2687	119
14.2761	101
14.2835	75
14.2909	92
14.2983	100
14.3057	110
14.3131	90
14.3205	108
14.3279	102
14.3353	104
14.3427	99
14.3501	104
14.3575	104
14.3649	101
14.3723	100
14.3797	123
14.3871	102
14.3945	107
14.4019	107
14.4092	112
14.4166	97
14.4240	120
14.4314	102
14.4388	102
14.4462	130
14.4536	122
14.4610	106
14.4684	114
14.4758	111
14.4832	108
14.4906	102
14.4980	123
14.5054	113
14.5128	97
14.5202	110
14.5276	110
14.5350	119
14.5424	128
14.5498	109
14.5572	114
14.5645	124
14.5719	117
14.5793	127
14.5867	109
14.5941	124
14.6015	149
14.6089	145
14.6163	128
14.6237	151
14.6311	137
14.6385	150
14.6459	179
14.6533	141
14.6607	166
14.6681	170
14.6755	229
14.6829	176
14.6903	226
14.6977	263
14.7051	252
14.7125	318
14.7198	336
14.7272	406
14.7346	427
14.7420	498
14.7494	540
14.7568	610
14.7642	712
14.7716	836
14.7790	855
14.7864	895
14.7938	1038
14.8012	1108
14.8086	1228
14.8160	1202
14.8234	1199
14.8308	1194
14.8382	1223
14.8456	1245
14.8530	1177
14.8604	1206
14.8678	1131
14.8751	1060
14.8825	942
14.8899	946
14.8973	865
14.9047	730
14.9121	692
14.9195	591
14.9269	536
14.9343	491
14.9417	420
14.9491	350
14.9565	335
14.9639	278
14.9713	284
14.9787	222
14.9861	212
14.9935	199
15.0009	201
15.0083	200
15.0157	190
15.0231	178
15.0304	166
15.0378	166
15.0452	148
15.0526	167
15.0600	156
15.0674	164
15.0748	173
15.0822	159
15.0896	143
15.0970	168
15.1044	165
15.1118	171
15.1192	163
15.1266	183
15.1340	178
15.1414	213
15.1488	207
15.1562	205
15.1636	235
15.1710	266
15.1784	320
15.1857	335
15.1931	362
15.2005	406
15.2079	451
15.2153	490
15.2227	542
15.2301	640
15.2375	691
15.2449	731
15.2523	803
15.2597	794
15.2671	860
15.2745	872
15.2819	873
15.2893	906
15.2967	878
15.3041	876
15.3115	816
15.3189	747
15.3263	781
15.3337	708
15.3410	671
15.3484	606
15.3558	559
15.3632	477
15.3706	461
15.3780	401
15.3854	350
15.3928	307
15.4002	286
15.4076	236
15.4150	214
15.4224	187
15.4298	183
15.4372	170
15.4446	196
15.4520	134
15.4594	134
15.4668	123
15.4742	141
15.4816	117
15.4890	131
15.4963	109
15.5037	107
15.5111	137
15.5185	128
15.5259	106
15.5333	110
15.5407	117
15.5481	143
15.5555	111
15.5629	111
15.5703	128
15.5777	117
15.5851	111
15.5925	103
15.5999	119
15.6073	111
15.6147	100
15.6221	100
15.6295	119
15.6369	97
15.6443	100
15.6516	94
15.6590	98
15.6664	92
15.6738	108
15.6812	115
15.6886	98
15.6960	97
15.7034	95
15.7108	103
15.7182	105
15.7256	101
15.7330	114
15.7404	116
15.7478	99
15.7552	106
15.7626	101
15.7700	116
15.7774	89
15.7848	102
15.7922	105
15.7996	112
15.8070	106
15.8143	79
15.8217	101
15.8291	94
15.8365	88
15.8439	94
15.8513	92
15.8587	101
15.8661	92
15.8735	93
15.8809	91
15.8883	89
15.8957	102
15.9031	93
15.9105	92
15.9179	96
15.9253	85
15.9327	95
15.9401	106
15.9475	99
15.9549	93
15.9623	85
15.9696	89
15.9770	97
15.9844	115
15.9918	97
15.9992	101
16.0066	88
16.0140	98
16.0214	101
16.0288	100
16.0362	93
16.0436	97
16.0510	116
16.0584	101
16.0658	90
16.0732	97
16.0806	85
16.0880	92
16.0954	100
16.1028	113
16.1102	106
16.1176	96
16.1249	97
16.1323	80
16.1397	100
16.1471	90
16.1545	106
16.1619	94
16.1693	106
16.1767	92
16.1841	105
16.1915	82
16.1989	93
16.2063	81
16.2137	91
16.2211	94
16.2285	90
16.2359	95
16.2433	89
16.2507	83
16.2581	101
16.2655	82
16.2729	120
16.2802	95
16.2876	83
16.2950	89
16.3024	101
16.3098	95
16.3172	88
16.3246	97
16.3320	83
16.3394	100
16.3468	91
16.3542	108
16.3616	89
16.3690	103
16.3764	114
16.3838	100
16.3912	93
16.3986	97
16.4060	87
16.4134	76
16.4208	103
16.4282	91
16.4355	93
16.4429	75
16.4503	92
16.4577	93
16.4651	91
16.4725	88
16.4799	76
16.4873	80
16.4947	69
16.5021	100
16.5095	87
16.5169	75
16.5243	99
16.5317	96
16.5391	90
16.5465	94
16.5539	104
16.5613	95
16.5687	85
16.5761	106
16.5835	90
16.5908	103
16.5982	102
16.6056	104
16.6130	118
16.6204	94
16.6278	101
16.6352	106
16.6426	127
16.6500	117
16.6574	101
16.6648	115
16.6722	133
16.6796	153
16.6870	116
16.6944	150
16.7018	165
16.7092	139
16.7166	141
16.7240	158
16.7314	146
16.7388	168
16.7461	175
16.7535	154
16.7609	162
16.7683	164
16.7757	174
16.7831	141
16.7905	149
16.7979	164
16.8053	157
16.8127	145
16.8201	123
16.8275	138
16.8349	128
16.8423	140
16.8497	123
16.8571	105
16.8645	118
16.8719	92
16.8793	105
16.8867	108
16.8941	84
16.9014	89
16.9088	108
16.9162	98
16.9236	82
16.9310	91
16.9384	95
16.9458	97
16.9532	94
16.9606	87
16.9680	91
16.9754	93
16.9828	96
16.9902	100
16.9976	98
17.0050	116
17.0124	104
17.0198	119
17.0272	101
17.0346	99
17.0420	118
17.0494	121
17.0567	95
17.0641	107
17.0715	105
17.0789	93
17.0863	105
17.0937	106
17.1011	105
17.1085	108
17.1159	117
17.1233	92
17.1307	83
17.1381	105
17.1455	93
17.1529	112
17.1603	109
17.1677	88
17.1751	105
17.1825	110
17.1899	113
17.1973	98
17.2047	125
17.2120	101
17.2194	99
17.2268	146
17.2342	94
17.2416	109
17.2490	116
17.2564	100
17.2638	114
17.2712	111
17.2786	110
17.2860	119
17.2934	109
17.3008	124
17.3082	96
17.3156	117
17.3230	82
17.3304	104
17.3378	107
17.3452	106
17.3526	138
17.3600	126
17.3674	133
17.3747	112
17.3821	108
17.3895	119
17.3969	123
17.4043	125
17.4117	117
17.4191	139
17.4265	109
17.4339	125
17.4413	147
17.4487	140
17.4561	163
17.4635	150
17.4709	147
17.4783	166
17.4857	169
17.4931	174
17.5005	178
17.5079	206
17.5153	226
17.5227	261
17.5300	250
17.5374	281
17.5448	375
17.5522	359
17.5596	412
17.5670	463
17.5744	495
17.5818	581
17.5892	636
17.5966	701
17.6040	851
17.6114	950
17.6188	961
17.6262	1058
17.6336	1135
17.6410	1139
17.6484	1247
17.6558	1320
17.6632	1328
17.6706	1260
17.6780	1335
17.6853	1263
17.6927	1249
17.7001	1242
17.7075	1092
17.7149	1064
17.7223	1011
17.7297	895
17.7371	817
17.7445	815
17.7519	709
17.7593	660
17.7667	583
17.7741	520
17.7815	494
17.7889	499
17.7963	519
17.8037	462
17.8111	487
17.8185	541
17.8259	485
17.8333	551
17.8406	514
17.8480	524
17.8554	532
17.8628	495
17.8702	501
17.8776	480
17.8850	463
17.8924	417
17.8998	394
17.9072	369
17.9146	338
17.9220	302
17.9294	293
17.9368	245
17.9442	228
17.9516	208
17.9590	198
17.9664	191
17.9738	167
17.9812	157
17.9886	167
17.9959	126
18.0033	149
18.0107	130
18.0181	144
18.0255	158
18.0329	121
18.0403	152
18.0477	148
18.0551	141
18.0625	148
18.0699	132
18.0773	157
18.0847	150
18.0921	126
18.0995	118
18.1069	134
18.1143	125
18.1217	140
18.1291	145
18.1365	141
18.1439	114
18.1512	119
18.1586	122
18.1660	110
18.1734	124
18.1808	121
18.1882	128
18.1956	115
18.2030	133
18.2104	113
18.2178	120
18.2252	119
18.2326	130
18.2400	123
18.2474	117
18.2548	129
18.2622	128
18.2696	145
18.2770	114
18.2844	123
18.2918	120
18.2992	112
18.3065	140
18.3139	108
18.3213	122
18.3287	143
18.3361	155
18.3435	143
18.3509	156
18.3583	153
18.3657	180
18.3731	163
18.3805	168
18.3879	166
18.3953	174
18.4027	197
18.4101	207
18.4175	226
18.4249	208
18.4323	208
18.4397	220
18.4471	245
18.4545	242
18.4618	242
18.4692	210
18.4766	212
18.4840	213
18.4914	209
18.4988	241
18.5062	215
18.5136	208
18.5210	221
18.5284	171
18.5358	176
18.5432	205
18.5506	162
18.5580	157
18.5654	167
18.5728	167
18.5802	161
18.5876	163
18.5950	166
18.6024	177
18.6098	148
18.6171	139
18.6245	167
18.6319	164
18.6393	188
18.6467	156
18.6541	165
18.6615	148
18.6689	156
18.6763	183
18.6837	177
18.6911	175
18.6985	190
18.7059	161
18.7133	179
18.7207	201
18.7281	181
18.7355	188
18.7429	220
18.7503	237
18.7577	272
18.7651	276
18.7724	300
18.7798	330
18.7872	322
18.7946	378
18.8020	394
18.8094	454
18.8168	506
18.8242	479
18.8316	599
18.8390	633
18.8464	694
18.8538	790
18.8612	814
18.8686	906
18.8760	982
18.8834	1072
18.8908	1179
18.8982	1384
18.9056	1458
18.9130	1635
18.9204	1857
18.9278	1939
18.9351	2137
18.9425	2181
18.9499	2498
18.9573	2643
18.9647	2683
18.9721	2915
18.9795	2994
18.9869	2946
18.9943	2920
19.0017	3012
19.0091	2968
19.0165	2927
19.0239	2729
19.0313	2600
19.0387	2394
19.0461	2268
19.0535	2091
19.0609	1899
19.0683	1792
19.0757	1521
19.0831	1441
19.0904	1146
19.0978	1036
19.1052	947
19.1126	797
19.1200	726
19.1274	604
19.1348	581
19.1422	494
19.1496	438
19.1570	422
19.1644	380
19.1718	354
19.1792	355
19.1866	316
19.1940	268
19.2014	290
19.2088	247
19.2162	236
19.2236	210
19.2310	213
19.2384	222
19.2457	208
19.2531	194
19.2605	199
19.2679	175
19.2753	177
19.2827	173
19.2901	184
19.2975	197
19.3049	149
19.3123	161
19.3197	165
19.3271	173
19.3345	170
19.3419	183
19.3493	148
19.3567	170
19.3641	169
19.3715	174
19.3789	180
19.3863	144
19.3937	189
19.4010	167
19.4084	180
19.4158	190
19.4232	192
19.4306	190
19.4380	234
19.4454	198
19.4528	195
19.4602	219
19.4676	227
19.4750	274
19.4824	291
19.4898	279
19.4972	305
19.5046	325
19.5120	387
19.5194	392
19.5268	444
19.5342	519
19.5416	498
19.5490	583
19.5563	636
19.5637	637
19.5711	637
19.5785	697
19.5859	715
19.5933	760
19.6007	739
19.6081	754
19.6155	742
19.6229	775
19.6303	697
19.6377	704
19.6451	672
19.6525	605
19.6599	563
19.6673	524
19.6747	466
19.6821	410
19.6895	429
19.6969	364
19.7043	356
19.7116	302
19.7190	279
19.7264	279
19.7338	263
19.7412	228
19.7486	172
19.7560	188
19.7634	176
19.7708	193
19.7782	159
19.7856	146
19.7930	147
19.8004	159
19.8078	119
19.8152	139
19.8226	133
19.8300	135
19.8374	113
19.8448	150
19.8522	136
19.8596	138
19.8669	124
19.8743	140
19.8817	127
19.8891	118
19.8965	126
19.9039	119
19.9113	123
19.9187	103
19.9261	115
19.9335	121
19.9409	121
19.9483	137
19.9557	135
19.9631	127
19.9705	129
19.9779	128
19.9853	127
19.9927	112
20.0001	127
20.0075	100
20.0149	117
20.0222	122
20.0296	126
20.0370	123
20.0444	122
20.0518	133
20.0592	135
20.0666	118
20.0740	125
20.0814	122
20.0888	117
20.0962	113
20.1036	132
20.1110	113
20.1184	110
20.1258	127
20.1332	155
20.1406	143
20.1480	154
20.1554	140
20.1628	145
20.1702	135
20.1775	149
20.1849	154
20.1923	154
20.1997	160
20.2071	147
20.2145	166
20.2219	165
20.2293	192
20.2367	209
20.2441	201
20.2515	206
20.2589	255
20.2663	267
20.2737	311
20.2811	361
20.2885	363
20.2959	377
20.3033	444
20.3107	450
20.3181	482
20.3255	478
20.3328	535
20.3402	578
20.3476	554
20.3550	489
20.3624	537
20.3698	559
20.3772	495
20.3846	518
20.3920	520
20.3994	422
20.4068	424
20.4142	379
20.4216	377
20.4290	345
20.4364	287
20.4438	324
20.4512	264
20.4586	237
20.4660	252
20.4734	237
20.4808	206
20.4882	185
20.4955	201
20.5029	199
20.5103	214
20.5177	186
20.5251	191
20.5325	196
20.5399	180
20.5473	203
20.5547	208
20.5621	199
20.5695	183
20.5769	175
20.5843	192
20.5917	182
20.5991	187
20.6065	195
20.6139	197
20.6213	202
20.6287	186
20.6361	186
20.6435	205
20.6508	219
20.6582	193
20.6656	196
20.6730	222
20.6804	239
20.6878	258
20.6952	288
20.7026	266
20.7100	338
20.7174	363
20.7248	387
20.7322	423
20.7396	460
20.7470	488
20.7544	575
20.7618	606
20.7692	626
20.7766	687
20.7840	689
20.7914	807
20.7988	796
20.8061	863
20.8135	864
20.8209	928
20.8283	986
20.8357	920
20.8431	940
20.8505	936
20.8579	964
20.8653	989
20.8727	943
20.8801	983
20.8875	1003
20.8949	1060
20.9023	1077
20.9097	1222
20.9171	1258
20.9245	1380
20.9319	1532
20.9393	1644
20.9467	1798
20.9541	1836
20.9614	2222
20.9688	2320
20.9762	2531
20.9836	2777
20.9910	2793
20.9984	2912
21.0058	3092
21.0132	3301
21.0206	3240
21.0280	3256
21.0354	3292
21.0428	3144
21.0502	3131
21.0576	2978
21.0650	2830
21.0724	2914
21.0798	2509
21.0872	2377
21.0946	2192
21.1020	1930
21.1094	1835
21.1167	1624
21.1241	1456
21.1315	1312
21.1389	1121
21.1463	1006
21.1537	904
21.1611	779
21.1685	697
21.1759	646
21.1833	559
21.1907	511
21.1981	447
21.2055	442
21.2129	394
21.2203	382
21.2277	315
21.2351	297
21.2425	304
21.2499	293
21.2573	285
21.2647	276
21.2720	250
21.2794	284
21.2868	236
21.2942	203
21.3016	227
21.3090	236
21.3164	234
21.3238	213
21.3312	227
21.3386	183
21.3460	195
21.3534	191
21.3608	202
21.3682	184
21.3756	175
21.3830	191
21.3904	197
21.3978	188
21.4052	169
21.4126	207
21.4200	183
21.4273	172
21.4347	194
21.4421	194
21.4495	190
21.4569	214
21.4643	199
21.4717	217
21.4791	206
21.4865	218
21.4939	228
21.5013	205
21.5087	252
21.5161	253
21.5235	280
21.5309	289
21.5383	341
21.5457	351
21.5531	377
21.5605	419
21.5679	453
21.5753	557
21.5826	554
21.5900	663
21.5974	659
21.6048	678
21.6122	712
21.6196	686
21.6270	779
21.6344	814
21.6418	771
21.6492	828
21.6566	821
21.6640	773
21.6714	742
21.6788	690
21.6862	653
21.6936	619
21.7010	565
21.7084	532
21.7158	508
21.7232	480
21.7306	387
21.7379	352
21.7453	332
21.7527	331
21.7601	315
21.7675	269
21.7749	273
21.7823	268
21.7897	262
21.7971	275
21.8045	264
21.8119	286
21.8193	255
21.8267	289
21.8341	277
21.8415	269
21.8489	245
21.8563	257
21.8637	245
21.8711	278
21.8785	237
21.8859	257
21.8932	260
21.9006	252
21.9080	234
21.9154	219
21.9228	209
21.9302	212
21.9376	190
21.9450	193
21.9524	217
21.9598	179
21.9672	181
21.9746	176
21.9820	175
21.9894	183
21.9968	187
22.0042	167
22.0116	160
22.0190	181
22.0264	156
22.0338	177
22.0412	182
22.0485	148
22.0559	148
22.0633	152
22.0707	150
22.0781	147
22.0855	156
22.0929	136
22.1003	130
22.1077	111
22.1151	129
22.1225	134
22.1299	119
22.1373	120
22.1447	133
22.1521	126
22.1595	135
22.1669	126
22.1743	113
22.1817	126
22.1891	129
22.1965	102
22.2039	132
22.2112	99
22.2186	113
22.2260	105
22.2334	100
22.2408	107
22.2482	113
22.2556	110
22.2630	114
22.2704	128
22.2778	115
22.2852	132
22.2926	107
22.3000	124
22.3074	121
22.3148	133
22.3222	121
22.3296	102
22.3370	94
22.3444	111
22.3518	128
22.3592	97
22.3665	119
22.3739	120
22.3813	108
22.3887	129
22.3961	106
22.4035	131
22.4109	112
22.4183	113
22.4257	123
22.4331	128
22.4405	134
22.4479	107
22.4553	117
22.4627	109
22.4701	104
22.4775	94
22.4849	118
22.4923	117
22.4997	110
22.5071	121
22.5145	114
22.5218	110
22.5292	117
22.5366	106
22.5440	109
22.5514	101
22.5588	115
22.5662	117
22.5736	105
22.5810	114
22.5884	105
22.5958	115
22.6032	102
22.6106	107
22.6180	123
22.6254	127
22.6328	109
22.6402	99
22.6476	121
22.6550	130
22.6624	116
22.6698	104
22.6771	108
22.6845	111
22.6919	107
22.6993	101
22.7067	109
22.7141	117
22.7215	122
22.7289	117
22.7363	97
22.7437	103
22.7511	117
22.7585	148
22.7659	114
22.7733	139
22.7807	150
22.7881	146
22.7955	130
22.8029	126
22.8103	125
22.8177	141
22.8251	145
22.8324	152
22.8398	157
22.8472	136
22.8546	171
22.8620	124
22.8694	150
22.8768	141
22.8842	168
22.8916	171
22.8990	168
22.9064	176
22.9138	171
22.9212	171
22.9286	169
22.9360	171
22.9434	193
22.9508	188
22.9582	189
22.9656	159
22.9730	142
22.9804	154
22.9877	137
22.9951	146
23.0025	151
23.0099	150
23.0173	147
23.0247	151
23.0321	143
23.0395	117
23.0469	145
23.0543	119
23.0617	115
23.0691	121
23.0765	113
23.0839	114
23.0913	108
23.0987	122
23.1061	116
23.1135	127
23.1209	117
23.1283	122
23.1357	98
23.1430	110
23.1504	111
23.1578	112
23.1652	84
23.1726	103
23.1800	115
23.1874	119
23.1948	99
23.2022	96
23.2096	109
23.2170	109
23.2244	116
23.2318	122
23.2392	109
23.2466	110
23.2540	105
23.2614	107
23.2688	95
23.2762	108
23.2836	99
23.2910	115
23.2983	120
23.3057	97
23.3131	114
23.3205	92
23.3279	85
23.3353	120
23.3427	117
23.3501	130
23.3575	98
23.3649	110
23.3723	108
23.3797	112
23.3871	104
23.3945	114
23.4019	108
23.4093	110
23.4167	100
23.4241	115
23.4315	121
23.4389	114
23.4463	105
23.4536	118
23.4610	110
23.4684	104
23.4758	111
23.4832	114
23.4906	115
23.4980	108
23.5054	108
23.5128	120
23.5202	118
23.5276	111
23.5350	119
23.5424	119
23.5498	122
23.5572	105
23.5646	116
23.5720	116
23.5794	115
23.5868	131
23.5942	123
23.6016	114
23.6089	119
23.6163	111
23.6237	105
23.6311	97
23.6385	107
23.6459	105
23.6533	113
23.6607	114
23.6681	122
23.6755	130
23.6829	117
23.6903	128
23.6977	101
23.7051	129
23.7125	106
23.7199	112
23.7273	95
23.7347	124
23.7421	113
23.7495	108
23.7569	103
23.7643	102
23.7716	102
23.7790	130
23.7864	112
23.7938	115
23.8012	120
23.8086	119
23.8160	118
23.8234	118
23.8308	116
23.8382	118
23.8456	120
23.8530	129
23.8604	136
23.8678	127
23.8752	136
23.8826	162
23.8900	149
23.8974	123
23.9048	138
23.9122	164
23.9196	151
23.9269	132
23.9343	162
23.9417	146
23.9491	175
23.9565	167
23.9639	197
23.9713	198
23.9787	178
23.9861	214
23.9935	209
24.0009	257
24.0083	230
24.0157	273
24.0231	280
24.0305	339
24.0379	392
24.0453	412
24.0527	422
24.0601	496
24.0675	530
24.0749	611
24.0822	663
24.0896	730
24.0970	772
24.1044	796
24.1118	829
24.1192	829
24.1266	853
24.1340	875
24.1414	896
24.1488	873
24.1562	853
24.1636	806
24.1710	793
24.1784	754
24.1858	725
24.1932	706
24.2006	614
24.2080	594
24.2154	565
24.2228	471
24.2302	488
24.2375	448
24.2449	423
24.2523	377
24.2597	364
24.2671	303
24.2745	284
24.2819	274
24.2893	271
24.2967	261
24.3041	251
24.3115	248
24.3189	264
24.3263	236
24.3337	231
24.3411	297
24.3485	303
24.3559	276
24.3633	309
24.3707	307
24.3781	334
24.3855	361
24.3928	319
24.4002	330
24.4076	347
24.4150	367
24.4224	357
24.4298	368
24.4372	317
24.4446	343
24.4520	358
24.4594	363
24.4668	319
24.4742	316
24.4816	275
24.4890	290
24.4964	268
24.5038	260
24.5112	273
24.5186	278
24.5260	224
24.5334	247
24.5408	238
24.5481	228
24.5555	227
24.5629	239
24.5703	230
24.5777	251
24.5851	237
24.5925	261
24.5999	322
24.6073	295
24.6147	304
24.6221	353
24.6295	345
24.6369	331
24.6443	336
24.6517	351
24.6591	399
24.6665	369
24.6739	445
24.6813	444
24.6887	429
24.6961	497
24.7034	507
24.7108	497
24.7182	563
24.7256	547
24.7330	574
24.7404	598
24.7478	702
24.7552	702
24.7626	774
24.7700	808
24.7774	844
24.7848	947
24.7922	1042
24.7996	1110
24.8070	1138
24.8144	1161
24.8218	1273
24.8292	1194
24.8366	1347
24.8440	1355
24.8514	1376
24.8587	1376
24.8661	1373
24.8735	1359
24.8809	1394
24.8883	1367
24.8957	1382
24.9031	1259
24.9105	1318
24.9179	1249
24.9253	1169
24.9327	1141
24.9401	1117
24.9475	1093
24.9549	1140
24.9623	1083
24.9697	1091
24.9771	1163
24.9845	1159
24.9919	1234
24.9993	1342
25.0067	1440
25.0140	1557
25.0214	1580
25.0288	1636
25.0362	1812
25.0436	1800
25.0510	1882
25.0584	1856
25.0658	1865
25.0732	1843
25.0806	1906
25.0880	1886
25.0954	1797
25.1028	1810
25.1102	1774
25.1176	1635
25.1250	1578
25.1324	1509
25.1398	1300
25.1472	1197
25.1546	1131
25.1620	1022
25.1693	909
25.1767	758
25.1841	760
25.1915	691
25.1989	663
25.2063	550
25.2137	498
25.2211	459
25.2285	432
25.2359	375
25.2433	318
25.2507	330
25.2581	286
25.2655	277
25.2729	247
25.2803	255
25.2877	245
25.2951	240
25.3025	219
25.3099	252
25.3173	244
25.3247	188
25.3320	207
25.3394	187
25.3468	160
25.3542	173
25.3616	205
25.3690	179
25.3764	138
25.3838	192
25.3912	178
25.3986	179
25.4060	145
25.4134	162
25.4208	161
25.4282	153
25.4356	160
25.4430	176
25.4504	173
25.4578	165
25.4652	167
25.4726	129
25.4800	171
25.4873	202
25.4947	168
25.5021	167
25.5095	172
25.5169	186
25.5243	169
25.5317	177
25.5391	178
25.5465	168
25.5539	158
25.5613	165
25.5687	149
25.5761	147
25.5835	132
25.5909	140
25.5983	134
25.6057	157
25.6131	145
25.6205	156
25.6279	170
25.6353	158
25.6426	156
25.6500	189
25.6574	165
25.6648	160
25.6722	147
25.6796	188
25.6870	172
25.6944	174
25.7018	179
25.7092	171
25.7166	171
25.7240	181
25.7314	214
25.7388	198
25.7462	223
25.7536	205
25.7610	218
25.7684	194
25.7758	221
25.7832	245
25.7906	223
25.7979	258
25.8053	275
25.8127	242
25.8201	241
25.8275	265
25.8349	256
25.8423	277
25.8497	267
25.8571	235
25.8645	232
25.8719	275
25.8793	235
25.8867	247
25.8941	215
25.9015	211
25.9089	221
25.9163	198
25.9237	200
25.9311	193
25.9385	167
25.9459	224
25.9532	177
25.9606	174
25.9680	205
25.9754	196
25.9828	182
25.9902	185
25.9976	176
26.0050	181
26.0124	199
26.0198	145
26.0272	177
26.0346	175
26.0420	186
26.0494	166
26.0568	154
26.0642	178
26.0716	198
26.0790	151
26.0864	161
26.0938	180
26.1012	155
26.1085	175
26.1159	171
26.1233	159
26.1307	163
26.1381	161
26.1455	173
26.1529	179
26.1603	141
26.1677	164
26.1751	174
26.1825	163
26.1899	167
26.1973	193
26.2047	160
26.2121	199
26.2195	157
26.2269	188
26.2343	164
26.2417	187
26.2491	164
26.2565	192
26.2638	218
26.2712	232
26.2786	204
26.2860	212
26.2934	202
26.3008	210
26.3082	179
26.3156	212
26.3230	230
26.3304	207
26.3378	221
26.3452	251
26.3526	258
26.3600	242
26.3674	256
26.3748	245
26.3822	248
26.3896	263
26.3970	308
26.4044	279
26.4118	324
26.4191	380
26.4265	377
26.4339	421
26.4413	431
26.4487	490
26.4561	497
26.4635	550
26.4709	633
26.4783	671
26.4857	777
26.4931	823
26.5005	1015
26.5079	1042
26.5153	1197
26.5227	1316
26.5301	1477
26.5375	1756
26.5449	1933
26.5523	2081
26.5597	2235
26.5671	2420
26.5744	2463
26.5818	2899
26.5892	2859
26.5966	2894
26.6040	3091
26.6114	3138
26.6188	3196
26.6262	3058
26.6336	3147
26.6410	3051
26.6484	2930
26.6558	2902
26.6632	2652
26.6706	2559
26.6780	2365
26.6854	2264
26.6928	2179
26.7002	1849
26.7076	1896
26.7150	1669
26.7224	1497
26.7297	1418
26.7371	1271
26.7445	1141
26.7519	1013
26.7593	862
26.7667	816
26.7741	701
26.7815	635
26.7889	598
26.7963	577
26.8037	513
26.8111	494
26.8185	474
26.8259	415
26.8333	395
26.8407	360
26.8481	345
26.8555	362
26.8629	315
26.8703	309
26.8777	304
26.8850	283
26.8924	284
26.8998	262
26.9072	238
26.9146	240
26.9220	250
26.9294	248
26.9368	250
26.9442	230
26.9516	219
26.9590	224
26.9664	219
26.9738	191
26.9812	186
26.9886	233
26.9960	204
27.0034	179
27.0108	219
27.0182	179
27.0256	208
27.0330	188
27.0404	201
27.0477	209
27.0551	200
27.0625	169
27.0699	198
27.0773	182
27.0847	199
27.0921	180
27.0995	197
27.1069	166
27.1143	181
27.1217	204
27.1291	161
27.1365	173
27.1439	170
27.1513	186
27.1587	177
27.1661	195
27.1735	202
27.1809	215
27.1883	206
27.1957	175
27.2030	210
27.2104	216
27.2178	194
27.2252	195
27.2326	180
27.2400	207
27.2474	242
27.2548	226
27.2622	219
27.2696	256
27.2770	235
27.2844	252
27.2918	217
27.2992	240
27.3066	305
27.3140	292
27.3214	296
27.3288	304
27.3362	340
27.3436	343
27.3510	341
27.3583	328
27.3657	323
27.3731	325
27.3805	315
27.3879	327
27.3953	369
27.4027	353
27.4101	327
27.4175	321
27.4249	303
27.4323	307
27.4397	295
27.4471	257
27.4545	261
27.4619	274
27.4693	259
27.4767	277
27.4841	232
27.4915	243
27.4989	202
27.5063	231
27.5136	239
27.5210	223
27.5284	232
27.5358	191
27.5432	212
27.5506	209
27.5580	221
27.5654	179
27.5728	196
27.5802	173
27.5876	226
27.5950	190
27.6024	197
27.6098	209
27.6172	222
27.6246	237
27.6320	178
27.6394	238
27.6468	208
27.6542	234
27.6616	228
27.6689	214
27.6763	205
27.6837	229
27.6911	248
27.6985	257
27.7059	273
27.7133	240
27.7207	279
27.7281	299
27.7355	327
27.7429	382
27.7503	344
27.7577	361
27.7651	435
27.7725	457
27.7799	466
27.7873	469
27.7947	576
27.8021	642
27.8095	716
27.8169	778
27.8242	809
27.8316	847
27.8390	969
27.8464	1048
27.8538	1239
27.8612	1201
27.8686	1357
27.8760	1399
27.8834	1466
27.8908	1509
27.8982	1522
27.9056	1570
27.9130	1495
27.9204	1485
27.9278	1460
27.9352	1500
27.9426	1473
27.9500	1447
27.9574	1344
27.9648	1326
27.9722	1285
27.9795	1225
27.9869	1213
27.9943	1179
28.0017	1056
28.0091	1061
28.0165	1010
28.0239	1001
28.0313	947
28.0387	911
28.0461	921
28.0535	882
28.0609	917
28.0683	835
28.0757	786
28.0831	832
28.0905	768
28.0979	712
28.1053	802
28.1127	761
28.1201	792
28.1275	773
28.1348	729
28.1422	719
28.1496	655
28.1570	704
28.1644	631
28.1718	634
28.1792	674
28.1866	591
28.1940	560
28.2014	555
28.2088	484
28.2162	516
28.2236	521
28.2310	555
28.2384	523
28.2458	504
28.2532	474
28.2606	472
28.2680	471
28.2754	453
28.2828	459
28.2901	400
28.2975	424
28.3049	402
28.3123	374
28.3197	403
28.3271	339
28.3345	337
28.3419	311
28.3493	330
28.3567	289
28.3641	278
28.3715	254
28.3789	256
28.3863	273
28.3937	210
28.4011	231
28.4085	223
28.4159	181
28.4233	184
28.4307	202
28.4381	176
28.4454	195
28.4528	184
28.4602	158
28.4676	157
28.4750	169
28.4824	169
28.4898	149
28.4972	128
28.5046	145
28.5120	150
28.5194	132
28.5268	176
28.5342	132
28.5416	131
28.5490	157
28.5564	154
28.5638	149
28.5712	152
28.5786	170
28.5860	152
28.5934	133
28.6008	151
28.6081	168
28.6155	148
28.6229	130
28.6303	147
28.6377	140
28.6451	132
28.6525	157
28.6599	144
28.6673	160
28.6747	140
28.6821	150
28.6895	122
28.6969	119
28.7043	130
28.7117	145
28.7191	164
28.7265	141
28.7339	136
28.7413	116
28.7487	141
28.7561	124
28.7634	148
28.7708	131
28.7782	114
28.7856	134
28.7930	126
28.8004	149
28.8078	161
28.8152	138
28.8226	121
28.8300	135
28.8374	129
28.8448	122
28.8522	134
28.8596	116
28.8670	124
28.8744	128
28.8818	138
28.8892	135
28.8966	125
28.9040	128
28.9114	136
28.9187	134
28.9261	132
28.9335	138
28.9409	135
28.9483	151
28.9557	135
28.9631	114
28.9705	158
28.9779	137
28.9853	142
28.9927	139
29.0001	132
29.0075	148
29.0149	140
29.0223	142
29.0297	159
29.0371	128
29.0445	163
29.0519	132
29.0593	151
29.0667	119
29.0740	116
29.0814	151
29.0888	132
29.0962	122
29.1036	139
29.1110	141
29.1184	124
29.1258	114
29.1332	129
29.1406	141
29.1480	116
29.1554	128
29.1628	144
29.1702	148
29.1776	133
29.1850	129
29.1924	141
29.1998	143
29.2072	127
29.2146	141
29.2220	132
29.2293	131
29.2367	124
29.2441	124
29.2515	132
29.2589	131
29.2663	143
29.2737	148
29.2811	151
29.2885	144
29.2959	146
29.3033	149
29.3107	145
29.3181	133
29.3255	166
29.3329	167
29.3403	174
29.3477	202
29.3551	174
29.3625	175
29.3699	234
29.3773	217
29.3846	208
29.3920	202
29.3994	260
29.4068	234
29.4142	244
29.4216	267
29.4290	251
29.4364	272
29.4438	292
29.4512	307
29.4586	293
29.4660	285
29.4734	303
29.4808	287
29.4882	336
29.4956	333
29.5030	285
29.5104	310
29.5178	302
29.5252	279
29.5326	336
29.5399	274
29.5473	258
29.5547	255
29.5621	281
29.5695	285
29.5769	242
29.5843	240
29.5917	233
29.5991	244
29.6065	230
29.6139	210
29.6213	212
29.6287	230
29.6361	226
29.6435	234
29.6509	203
29.6583	224
29.6657	201
29.6731	209
29.6805	207
29.6879	205
29.6952	222
29.7026	229
29.7100	218
29.7174	237
29.7248	224
29.7322	251
29.7396	282
29.7470	259
29.7544	249
29.7618	280
29.7692	291
29.7766	289
29.7840	274
29.7914	302
29.7988	293
29.8062	287
29.8136	283
29.8210	275
29.8284	271
29.8358	292
29.8432	267
29.8505	245
29.8579	274
29.8653	253
29.8727	259
29.8801	256
29.8875	225
29.8949	267
29.9023	244
29.9097	246
29.9171	250
29.9245	232
29.9319	229
29.9393	204
29.9467	193
29.9541	211
29.9615	223
29.9689	202
29.9763	194
29.9837	209
29.9911	222
29.9985	225
30.0058	221
30.0132	231
30.0206	273
30.0280	276
30.0354	308
30.0428	294
30.0502	333
30.0576	401
30.0650	365
30.0724	352
30.0798	406
30.0872	390
30.0946	417
30.1020	456
30.1094	418
30.1168	436
30.1242	407
30.1316	409
30.1390	445
30.1464	407
30.1538	394
30.1612	423
30.1685	376
30.1759	355
30.1833	395
30.1907	363
30.1981	333
30.2055	357
30.2129	366
30.2203	317
30.2277	341
30.2351	303
30.2425	327
30.2499	324
30.2573	307
30.2647	322
30.2721	302
30.2795	308
30.2869	336
30.2943	318
30.3017	319
30.3091	327
30.3165	357
30.3238	393
30.3312	389
30.3386	367
30.3460	356
30.3534	419
30.3608	427
30.3682	465
30.3756	454
30.3830	505
30.3904	450
30.3978	490
30.4052	537
30.4126	539
30.4200	534
30.4274	568
30.4348	598
30.4422	601
30.4496	666
30.4570	611
30.4644	603
30.4718	658
30.4791	624
30.4865	592
30.4939	590
30.5013	592
30.5087	581
30.5161	545
30.5235	544
30.5309	538
30.5383	488
30.5457	459
30.5531	409
30.5605	433
30.5679	414
30.5753	389
30.5827	420
30.5901	343
30.5975	371
30.6049	327
30.6123	312
30.6197	332
30.6271	322
30.6344	308
30.6418	308
30.6492	318
30.6566	302
30.6640	327
30.6714	327
30.6788	305
30.6862	314
30.6936	302
30.7010	295
30.7084	359
30.7158	321
30.7232	329
30.7306	304
30.7380	303
30.7454	295
30.7528	319
30.7602	310
30.7676	272
30.7750	261
30.7824	259
30.7897	285
30.7971	255
30.8045	245
30.8119	262
30.8193	228
30.8267	234
30.8341	229
30.8415	208
30.8489	191
30.8563	196
30.8637	212
30.8711	193
30.8785	208
30.8859	171
30.8933	180
30.9007	228
30.9081	194
30.9155	194
30.9229	212
30.9303	220
30.9377	235
30.9450	213
30.9524	192
30.9598	208
30.9672	217
30.9746	205
30.9820	221
30.9894	180
30.9968	234
31.0042	206
31.0116	197
31.0190	205
31.0264	176
31.0338	208
31.0412	177
31.0486	155
31.0560	169
31.0634	164
31.0708	161
31.0782	167
31.0856	149
31.0930	152
31.1003	150
31.1077	142
31.1151	154
31.1225	125
31.1299	142
31.1373	143
31.1447	139
31.1521	156
31.1595	125
31.1669	134
31.1743	131
31.1817	125
31.1891	125
31.1965	127
31.2039	137
31.2113	141
31.2187	130
31.2261	147
31.2335	155
31.2409	142
31.2483	143
31.2556	180
31.2630	120
31.2704	129
31.2778	120
31.2852	131
31.2926	130
31.3000	118
31.3074	126
31.3148	124
31.3222	122
31.3296	119
31.3370	139
31.3444	124
31.3518	121
31.3592	137
31.3666	105
31.3740	126
31.3814	136
31.3888	110
31.3962	118
31.4036	121
31.4109	116
31.4183	118
31.4257	106
31.4331	107
31.4405	118
31.4479	111
31.4553	100
31.4627	123
31.4701	100
31.4775	110
31.4849	104
31.4923	104
31.4997	102
31.5071	102
31.5145	115
31.5219	101
31.5293	117
31.5367	113
31.5441	99
31.5515	97
31.5589	106
31.5662	107
31.5736	118
31.5810	122
31.5884	115
31.5958	112
31.6032	133
31.6106	117
31.6180	112
31.6254	102
31.6328	105
31.6402	90
31.6476	109
31.6550	127
31.6624	123
31.6698	112
31.6772	118
31.6846	106
31.6920	101
31.6994	113
31.7068	104
31.7142	114
31.7215	111
31.7289	122
31.7363	104
31.7437	116
31.7511	112
31.7585	118
31.7659	93
31.7733	106
31.7807	98
31.7881	107
31.7955	118
31.8029	115
31.8103	111
31.8177	138
31.8251	97
31.8325	115
31.8399	119
31.8473	119
31.8547	124
31.8621	95
31.8695	118
31.8769	115
31.8842	134
31.8916	134
31.8990	132
31.9064	131
31.9138	154
31.9212	151
31.9286	148
31.9360	164
31.9434	157
31.9508	173
31.9582	173
31.9656	192
31.9730	192
31.9804	179
31.9878	213
31.9952	240
32.0026	240
32.0100	276
32.0174	217
32.0248	275
32.0322	262
32.0395	283
32.0469	281
32.0543	273
32.0617	268
32.0691	245
32.0765	241
32.0839	266
32.0913	259
32.0987	244
32.1061	229
32.1135	249
32.1209	212
32.1283	191
32.1357	233
32.1431	210
32.1505	194
32.1579	168
32.1653	169
32.1727	166
32.1801	165
32.1875	176
32.1948	184
32.2022	167
32.2096	152
32.2170	177
32.2244	167
32.2318	128
32.2392	124
32.2466	114
32.2540	135
32.2614	127
32.2688	115
32.2762	132
32.2836	109
32.2910	110
32.2984	118
32.3058	121
32.3132	115
32.3206	117
32.3280	123
32.3354	102
32.3428	117
32.3501	113
32.3575	113
32.3649	111
32.3723	113
32.3797	99
32.3871	126
32.3945	118
32.4019	122
32.4093	116
32.4167	124
32.4241	117
32.4315	114
32.4389	121
32.4463	125
32.4537	115
32.4611	108
32.4685	110
32.4759	103
32.4833	103
32.4907	121
32.4981	119
32.5054	108
32.5128	94
32.5202	107
32.5276	108
32.5350	109
32.5424	122
32.5498	113
32.5572	91
32.5646	96
32.5720	102
32.5794	95
32.5868	96
32.5942	113
32.6016	99
32.6090	95
32.6164	105
32.6238	95
32.6312	98
32.6386	102
32.6460	105
32.6534	108
32.6607	73
32.6681	98
32.6755	109
32.6829	114
32.6903	121
32.6977	104
32.7051	97
32.7125	119
32.7199	108
32.7273	91
32.7347	107
32.7421	99
32.7495	102
32.7569	98
32.7643	92
32.7717	91
32.7791	119
32.7865	93
32.7939	100
32.8013	111
32.8087	114
32.8160	105
32.8234	106
32.8308	115
32.8382	91
32.8456	112
32.8530	90
32.8604	113
32.8678	107
32.8752	99
32.8826	123
32.8900	125
32.8974	95
32.9048	97
32.9122	97
32.9196	119
32.9270	107
32.9344	117
32.9418	106
32.9492	113
32.9566	110
32.9640	100
32.9713	99
32.9787	117
32.9861	102
32.9935	105
33.0009	112
33.0083	101
33.0157	113
33.0231	89
33.0305	105
33.0379	102
33.0453	93
33.0527	97
33.0601	95
33.0675	95
33.0749	96
33.0823	107
33.0897	103
33.0971	121
33.1045	123
33.1119	111
33.1193	106
33.1266	117
33.1340	115
33.1414	104
33.1488	111
33.1562	118
33.1636	107
33.1710	102
33.1784	97
33.1858	97
33.1932	104
33.2006	127
33.2080	109
33.2154	82
33.2228	110
33.2302	101
33.2376	101
33.2450	109
33.2524	125
33.2598	109
33.2672	115
33.2746	116
33.2819	116
33.2893	96
33.2967	127
33.3041	102
33.3115	114
33.3189	103
33.3263	109
33.3337	99
33.3411	98
33.3485	116
33.3559	133
33.3633	98
33.3707	104
33.3781	89
33.3855	107
33.3929	89
33.4003	90
33.4077	110
33.4151	109
33.4225	90
33.4299	100
33.4373	90
33.4446	82
33.4520	107
33.4594	95
33.4668	99
33.4742	96
33.4816	82
33.4890	115
33.4964	96
33.5038	112
33.5112	104
33.5186	112
33.5260	83
33.5334	91
33.5408	103
33.5482	116
33.5556	104
33.5630	94
33.5704	102
33.5778	109
33.5852	131
33.5926	131
33.5999	92
33.6073	110
33.6147	93
33.6221	91
33.6295	109
33.6369	129
33.6443	123
33.6517	129
33.6591	122
33.6665	136
33.6739	124
33.6813	118
33.6887	135
33.6961	117
33.7035	132
33.7109	139
33.7183	139
33.7257	128
33.7331	142
33.7405	138
33.7479	144
33.7552	136
33.7626	148
33.7700	147
33.7774	135
33.7848	137
33.7922	133
33.7996	139
33.8070	144
33.8144	126
33.8218	127
33.8292	126
33.8366	133
33.8440	119
33.8514	108
33.8588	129
33.8662	120
33.8736	105
33.8810	119
33.8884	106
33.8958	109
33.9032	125
33.9105	119
33.9179	103
33.9253	121
33.9327	118
33.9401	136
33.9475	112
33.9549	105
33.9623	111
33.9697	103
33.9771	106
33.9845	116
33.9919	108
33.9993	113
34.0067	89
34.0141	95
34.0215	145
34.0289	108
34.0363	107
34.0437	110
34.0511	111
34.0585	131
34.0658	125
34.0732	120
34.0806	98
34.0880	123
34.0954	108
34.1028	107
34.1102	110
34.1176	115
34.1250	110
34.1324	120
34.1398	108
34.1472	99
34.1546	106
34.1620	126
34.1694	107
34.1768	91
34.1842	88
34.1916	98
34.1990	87
34.2064	105
34.2138	111
34.2211	101
34.2285	88
34.2359	113
34.2433	117
34.2507	96
34.2581	95
34.2655	94
34.2729	106
34.2803	95
34.2877	92
34.2951	88
34.3025	94
34.3099	121
34.3173	99
34.3247	94
34.3321	97
34.3395	114
34.3469	102
34.3543	104
34.3617	94
34.3691	108
34.3764	94
34.3838	108
34.3912	88
34.3986	100
34.4060	106
34.4134	95
34.4208	87
34.4282	111
34.4356	99
34.4430	91
34.4504	112
34.4578	93
34.4652	123
34.4726	98
34.4800	128
34.4874	107
34.4948	107
34.5022	103
34.5096	100
34.5170	121
34.5244	101
34.5317	126
34.5391	117
34.5465	135
34.5539	137
34.5613	102
34.5687	139
34.5761	110
34.5835	125
34.5909	142
34.5983	133
34.6057	132
34.6131	122
34.6205	135
34.6279	125
34.6353	126
34.6427	130
34.6501	145
34.6575	145
34.6649	148
34.6723	140
34.6797	143
34.6870	136
34.6944	143
34.7018	123
34.7092	123
34.7166	137
34.7240	134
34.7314	137
34.7388	111
34.7462	131
34.7536	132
34.7610	130
34.7684	134
34.7758	139
34.7832	140
34.7906	125
34.7980	116
34.8054	123
34.8128	130
34.8202	124
34.8276	109
34.8350	102
34.8423	107
34.8497	126
34.8571	128
34.8645	106
34.8719	126
34.8793	127
34.8867	127
34.8941	121
34.9015	122
34.9089	109
34.9163	114
34.9237	95
34.9311	113
34.9385	107
34.9459	98
34.9533	114
34.9607	107
34.9681	119
34.9755	102
34.9829	100
34.9903	89
34.9977	116
35.0050	100
35.0124	111
35.0198	97
35.0272	100
35.0346	93
35.0420	111
35.0494	118
35.0568	95
35.0642	96
35.0716	107
35.0790	93
35.0864	114
35.0938	113
35.1012	112
35.1086	109
35.1160	97
35.1234	112
35.1308	109
35.1382	92
35.1456	83
35.1530	115
35.1603	105
35.1677	99
35.1751	92
35.1825	86
35.1899	113
35.1973	104
35.2047	101
35.2121	110
35.2195	111
35.2269	104
35.2343	97
35.2417	108
35.2491	113
35.2565	104
35.2639	98
35.2713	112
35.2787	104
35.2861	127
35.2935	97
35.3009	109
35.3083	125
35.3156	82
35.3230	103
35.3304	95
35.3378	104
35.3452	114
35.3526	96
35.3600	94
35.3674	103
35.3748	112
35.3822	98
35.3896	102
35.3970	86
35.4044	96
35.4118	96
35.4192	101
35.4266	128
35.4340	106
35.4414	125
35.4488	102
35.4562	116
35.4636	101
35.4709	115
35.4783	114
35.4857	116
35.4931	107
35.5005	105
35.5079	115
35.5153	133
35.5227	110
35.5301	126
35.5375	97
35.5449	129
35.5523	124
35.5597	120
35.5671	116
35.5745	132
35.5819	120
35.5893	146
35.5967	128
35.6041	136
35.6115	127
35.6189	130
35.6262	131
35.6336	141
35.6410	120
35.6484	134
35.6558	125
35.6632	152
35.6706	129
35.6780	134
35.6854	134
35.6928	143
35.7002	117
35.7076	160
35.7150	144
35.7224	159
35.7298	139
35.7372	149
35.7446	148
35.7520	136
35.7594	158
35.7668	169
35.7742	168
35.7815	186
35.7889	180
35.7963	176
35.8037	172
35.8111	185
35.8185	184
35.8259	187
35.8333	184
35.8407	221
35.8481	200
35.8555	210
35.8629	225
35.8703	225
35.8777	247
35.8851	252
35.8925	229
35.8999	236
35.9073	288
35.9147	273
35.9221	269
35.9295	251
35.9368	263
35.9442	255
35.9516	275
35.9590	290
35.9664	290
35.9738	265
35.9812	257
35.9886	242
35.9960	252
36.0034	249
36.0108	237
36.0182	213
36.0256	189
36.0330	218
36.0404	195
36.0478	211
36.0552	224
36.0626	216
36.0700	205
36.0774	190
36.0848	171
36.0921	179
36.0995	183
36.1069	184
36.1143	151
36.1217	184
36.1291	145
36.1365	166
36.1439	170
36.1513	179
36.1587	162
36.1661	157
36.1735	159
36.1809	173
36.1883	139
36.1957	180
36.2031	155
36.2105	177
36.2179	145
36.2253	168
36.2327	147
36.2401	171
36.2474	175
36.2548	156
36.2622	165
36.2696	140
36.2770	150
36.2844	155
36.2918	147
36.2992	154
36.3066	158
36.3140	133
36.3214	156
36.3288	147
36.3362	152
36.3436	146
36.3510	147
36.3584	148
36.3658	155
36.3732	154
36.3806	141
36.3880	150
36.3954	142
36.4027	164
36.4101	135
36.4175	137
36.4249	139
36.4323	152
36.4397	155
36.4471	177
36.4545	158
36.4619	157
36.4693	148
36.4767	162
36.4841	167
36.4915	165
36.4989	180
36.5063	152
36.5137	142
36.5211	164
36.5285	155
36.5359	155
36.5433	165
36.5507	155
36.5580	148
36.5654	165
36.5728	169
36.5802	154
36.5876	157
36.5950	133
36.6024	123
36.6098	138
36.6172	121
36.6246	145
36.6320	140
36.6394	156
36.6468	150
36.6542	131
36.6616	148
36.6690	117
36.6764	153
36.6838	137
36.6912	126
36.6986	143
36.7060	132
36.7134	122
36.7207	124
36.7281	140
36.7355	125
36.7429	131
36.7503	131
36.7577	131
36.7651	118
36.7725	147
36.7799	109
36.7873	106
36.7947	123
36.8021	131
36.8095	126
36.8169	109
36.8243	95
36.8317	113
36.8391	113
36.8465	122
36.8539	105
36.8613	116
36.8687	88
36.8760	90
36.8834	91
36.8908	94
36.8982	96
36.9056	117
36.9130	86
36.9204	119
36.9278	93
36.9352	95
36.9426	86
36.9500	105
36.9574	107
36.9648	84
36.9722	95
36.9796	91
36.9870	97
36.9944	113
37.0018	106
37.0092	95
37.0166	85
37.0240	94
37.0313	90
37.0387	102
37.0461	99
37.0535	101
37.0609	110
37.0683	106
37.0757	103
37.0831	116
37.0905	97
37.0979	77
37.1053	95
37.1127	95
37.1201	110
37.1275	105
37.1349	89
37.1423	76
37.1497	102
37.1571	92
37.1645	87
37.1719	99
37.1793	112
37.1866	113
37.1940	101
37.2014	97
37.2088	103
37.2162	109
37.2236	112
37.2310	102
37.2384	115
37.2458	119
37.2532	98
37.2606	105
37.2680	115
37.2754	97
37.2828	99
37.2902	101
37.2976	119
37.3050	133
37.3124	125
37.3198	102
37.3272	113
37.3346	96
37.3419	137
37.3493	120
37.3567	94
37.3641	106
37.3715	107
37.3789	101
37.3863	106
37.3937	103
37.4011	107
37.4085	119
37.4159	85
37.4233	133
37.4307	119
37.4381	106
37.4455	114
37.4529	101
37.4603	96
37.4677	125
37.4751	105
37.4825	113
37.4899	117
37.4972	112
37.5046	110
37.5120	118
37.5194	88
37.5268	104
37.5342	110
37.5416	84
37.5490	94
37.5564	108
37.5638	73
37.5712	99
37.5786	90
37.5860	103
37.5934	106
37.6008	108
37.6082	94
37.6156	85
37.6230	110
37.6304	97
37.6378	80
37.6452	93
37.6525	105
37.6599	98
37.6673	86
37.6747	100
37.6821	105
37.6895	94
37.6969	107
37.7043	94
37.7117	103
37.7191	115
37.7265	114
37.7339	108
37.7413	95
37.7487	113
37.7561	99
37.7635	116
37.7709	109
37.7783	118
37.7857	123
37.7931	95
37.8005	98
37.8078	130
37.8152	115
37.8226	110
37.8300	125
37.8374	121
37.8448	115
37.8522	130
37.8596	132
37.8670	143
37.8744	131
37.8818	117
37.8892	125
37.8966	131
37.9040	139
37.9114	146
37.9188	132
37.9262	120
37.9336	147
37.9410	134
37.9484	156
37.9558	147
37.9631	155
37.9705	159
37.9779	150
37.9853	160
37.9927	145
38.0001	145
38.0075	163
38.0149	144
38.0223	177
38.0297	159
38.0371	161
38.0445	164
38.0519	171
38.0593	168
38.0667	175
38.0741	144
38.0815	156
38.0889	127
38.0963	147
38.1037	135
38.1111	151
38.1184	133
38.1258	129
38.1332	137
38.1406	139
38.1480	132
38.1554	155
38.1628	147
38.1702	137
38.1776	132
38.1850	114
38.1924	129
38.1998	130
38.2072	106
38.2146	121
38.2220	135
38.2294	142
38.2368	127
38.2442	122
38.2516	143
38.2590	136
38.2664	122
38.2738	150
38.2811	135
38.2885	133
38.2959	128
38.3033	120
38.3107	133
38.3181	165
38.3255	169
38.3329	147
38.3403	168
38.3477	177
38.3551	169
38.3625	166
38.3699	154
38.3773	194
38.3847	176
38.3921	178
38.3995	209
38.4069	179
38.4143	185
38.4217	184
38.4291	188
38.4364	191
38.4438	203
38.4512	199
38.4586	229
38.4660	223
38.4734	186
38.4808	184
38.4882	196
38.4956	232
38.5030	252
38.5104	213
38.5178	235
38.5252	230
38.5326	221
38.5400	256
38.5474	247
38.5548	243
38.5622	251
38.5696	274
38.5770	253
38.5844	269
38.5917	281
38.5991	259
38.6065	289
38.6139	311
38.6213	279
38.6287	285
38.6361	259
38.6435	274
38.6509	259
38.6583	221
38.6657	259
38.6731	239
38.6805	233
38.6879	217
38.6953	214
38.7027	214
38.7101	210
38.7175	217
38.7249	192
38.7323	173
38.7397	163
38.7470	181
38.7544	178
38.7618	145
38.7692	157
38.7766	141
38.7840	152
38.7914	140
38.7988	137
38.8062	144
38.8136	137
38.8210	128
38.8284	122
38.8358	115
38.8432	108
38.8506	119
38.8580	136
38.8654	120
38.8728	131
38.8802	138
38.8876	102
38.8950	122
38.9023	109
38.9097	107
38.9171	105
38.9245	107
38.9319	119
38.9393	112
38.9467	124
38.9541	103
38.9615	114
38.9689	119
38.9763	111
38.9837	109
38.9911	107
38.9985	126
39.0059	108
39.0133	99
39.0207	107
39.0281	120
39.0355	122
39.0429	124
39.0503	96
39.0576	91
39.0650	98
39.0724	100
39.0798	102
39.0872	123
39.0946	101
39.1020	112
39.1094	116
39.1168	112
39.1242	129
39.1316	109
39.1390	111
39.1464	116
39.1538	115
39.1612	116
39.1686	136
39.1760	107
39.1834	118
39.1908	116
39.1982	105
39.2056	129
39.2129	124
39.2203	128
39.2277	117
39.2351	145
39.2425	129
39.2499	135
39.2573	155
39.2647	170
39.2721	142
39.2795	124
39.2869	174
39.2943	163
39.3017	157
39.3091	162
39.3165	193
39.3239	168
39.3313	172
39.3387	172
39.3461	180
39.3535	185
39.3609	151
39.3682	193
39.3756	182
39.3830	190
39.3904	164
39.3978	190
39.4052	178
39.4126	193
39.4200	163
39.4274	201
39.4348	178
39.4422	189
39.4496	154
39.4570	155
39.4644	162
39.4718	178
39.4792	164
39.4866	170
39.4940	143
39.5014	142
39.5088	143
39.5162	141
39.5235	164
39.5309	155
39.5383	125
39.5457	148
39.5531	128
39.5605	127
39.5679	143
39.5753	122
39.5827	144
39.5901	120
39.5975	133
39.6049	121
39.6123	120
39.6197	128
39.6271	116
39.6345	123
39.6419	101
39.6493	106
39.6567	121
39.6641	119
39.6715	119
39.6788	134
39.6862	116
39.6936	108
39.7010	112
39.7084	111
39.7158	111
39.7232	116
39.7306	101
39.7380	106
39.7454	110
39.7528	126
39.7602	112
39.7676	111
39.7750	130
39.7824	125
39.7898	111
39.7972	107
39.8046	108
39.8120	113
39.8194	113
39.8268	86
39.8342	90
39.8415	124
39.8489	112
39.8563	114
39.8637	117
39.8711	109
39.8785	120
39.8859	105
39.8933	102
39.9007	122
39.9081	124
39.9155	118
39.9229	101
39.9303	134
39.9377	115
39.9451	130
39.9525	132
39.9599	143
39.9673	106
39.9747	123
39.9821	116
39.9895	139
39.9968	142
