2.0000	192
2.0074	217
2.0148	186
2.0222	219
2.0296	202
2.0370	192
2.0444	206
2.0518	194
2.0592	218
2.0666	190
2.0740	224
2.0813	206
2.0887	186
2.0961	216
2.1035	198
2.1109	185
2.1183	234
2.1257	231
2.1331	220
2.1405	170
2.1479	199
2.1553	182
2.1627	197
2.1701	211
2.1775	186
2.1849	197
2.1923	222
2.1997	216
2.2071	180
2.2145	188
2.2219	194
2.2293	224
2.2366	203
2.2440	205
2.2514	203
2.2588	211
2.2662	213
2.2736	180
2.2810	185
2.2884	195
2.2958	188
2.3032	221
2.3106	198
2.3180	214
2.3254	181
2.3328	195
2.3402	199
2.3476	185
2.3550	194
2.3624	206
2.3698	193
2.3772	213
2.3846	197
2.3919	180
2.3993	165
2.4067	205
2.4141	177
2.4215	205
2.4289	201
2.4363	223
2.4437	173
2.4511	203
2.4585	209
2.4659	175
2.4733	182
2.4807	182
2.4881	195
2.4955	188
2.5029	196
2.5103	188
2.5177	190
2.5251	179
2.5325	185
2.5399	207
2.5472	193
2.5546	182
2.5620	187
2.5694	180
2.5768	210
2.5842	197
2.5916	193
2.5990	195
2.6064	188
2.6138	171
2.6212	178
2.6286	191
2.6360	193
2.6434	167
2.6508	194
2.6582	178
2.6656	207
2.6730	226
2.6804	196
2.6878	183
2.6952	165
2.7025	167
2.7099	172
2.7173	177
2.7247	164
2.7321	175
2.7395	167
2.7469	177
2.7543	190
2.7617	194
2.7691	168
2.7765	193
2.7839	166
2.7913	186
2.7987	180
2.8061	198
2.8135	161
2.8209	170
2.8283	170
2.8357	161
2.8431	171
2.8505	183
2.8579	184
2.8652	179
2.8726	180
2.8800	172
2.8874	183
2.8948	162
2.9022	193
2.9096	189
2.9170	159
2.9244	188
2.9318	167
2.9392	194
2.9466	180
2.9540	165
2.9614	188
2.9688	193
2.9762	170
2.9836	158
2.9910	162
2.9984	171
3.0058	165
3.0132	178
3.0205	161
3.0279	143
3.0353	188
3.0427	177
3.0501	167
3.0575	189
3.0649	143
3.0723	182
3.0797	171
3.0871	171
3.0945	188
3.1019	190
3.1093	167
3.1167	147
3.1241	178
3.1315	169
3.1389	159
3.1463	171
3.1537	191
3.1611	182
3.1685	174
3.1758	177
3.1832	169
3.1906	165
3.1980	176
3.2054	167
3.2128	151
3.2202	168
3.2276	186
3.2350	180
3.2424	142
3.2498	181
3.2572	175
3.2646	149
3.2720	173
3.2794	165
3.2868	164
3.2942	155
3.3016	148
3.3090	182
3.3164	142
3.3238	189
3.3311	173
3.3385	172
3.3459	140
3.3533	171
3.3607	152
3.3681	159
3.3755	134
3.3829	157
3.3903	155
3.3977	160
3.4051	175
3.4125	186
3.4199	157
3.4273	147
3.4347	173
3.4421	169
3.4495	183
3.4569	156
3.4643	154
3.4717	166
3.4791	165
3.4864	190
3.4938	155
3.5012	119
3.5086	159
3.5160	171
3.5234	134
3.5308	167
3.5382	138
3.5456	144
3.5530	155
3.5604	166
3.5678	152
3.5752	156
3.5826	170
3.5900	140
3.5974	166
3.6048	152
3.6122	153
3.6196	160
3.6270	154
3.6344	153
3.6417	151
3.6491	165
3.6565	153
3.6639	137
3.6713	162
3.6787	148
3.6861	161
3.6935	173
3.7009	153
3.7083	152
3.7157	154
3.7231	158
3.7305	149
3.7379	176
3.7453	179
3.7527	150
3.7601	151
3.7675	142
3.7749	159
3.7823	147
3.7897	175
3.7970	142
3.8044	178
3.8118	162
3.8192	142
3.8266	159
3.8340	161
3.8414	136
3.8488	152
3.8562	165
3.8636	121
3.8710	148
3.8784	140
3.8858	165
3.8932	163
3.9006	139
3.9080	151
3.9154	157
3.9228	151
3.9302	145
3.9376	149
3.9450	151
3.9523	132
3.9597	142
3.9671	126
3.9745	130
3.9819	158
3.9893	141
3.9967	129
4.0041	164
4.0115	145
4.0189	147
4.0263	127
4.0337	153
4.0411	146
4.0485	140
4.0559	132
4.0633	136
4.0707	140
4.0781	130
4.0855	125
4.0929	105
4.1003	125
4.1076	118
4.1150	139
4.1224	136
4.1298	136
4.1372	144
4.1446	131
4.1520	143
4.1594	156
4.1668	132
4.1742	138
4.1816	124
4.1890	112
4.1964	143
4.2038	132
4.2112	117
4.2186	123
4.2260	137
4.2334	100
4.2408	138
4.2482	127
4.2556	115
4.2629	135
4.2703	118
4.2777	117
4.2851	121
4.2925	130
4.2999	138
4.3073	122
4.3147	115
4.3221	129
4.3295	118
4.3369	139
4.3443	125
4.3517	140
4.3591	136
4.3665	131
4.3739	113
4.3813	106
4.3887	141
4.3961	116
4.4035	139
4.4109	121
4.4183	125
4.4256	116
4.4330	115
4.4404	113
4.4478	136
4.4552	113
4.4626	98
4.4700	119
4.4774	115
4.4848	111
4.4922	111
4.4996	112
4.5070	129
4.5144	118
4.5218	121
4.5292	106
4.5366	113
4.5440	122
4.5514	106
4.5588	99
4.5662	89
4.5736	117
4.5809	122
4.5883	122
4.5957	132
4.6031	117
4.6105	113
4.6179	114
4.6253	118
4.6327	133
4.6401	100
4.6475	103
4.6549	119
4.6623	113
4.6697	100
4.6771	117
4.6845	88
4.6919	121
4.6993	116
4.7067	111
4.7141	125
4.7215	117
4.7289	128
4.7362	103
4.7436	106
4.7510	106
4.7584	112
4.7658	99
4.7732	132
4.7806	103
4.7880	129
4.7954	106
4.8028	97
4.8102	101
4.8176	98
4.8250	97
4.8324	93
4.8398	112
4.8472	122
4.8546	106
4.8620	115
4.8694	98
4.8768	112
4.8842	120
4.8915	100
4.8989	104
4.9063	119
4.9137	103
4.9211	109
4.9285	102
4.9359	91
4.9433	109
4.9507	94
4.9581	113
4.9655	82
4.9729	102
4.9803	116
4.9877	115
4.9951	95
5.0025	92
5.0099	109
5.0173	113
5.0247	92
5.0321	106
5.0395	103
5.0468	88
5.0542	107
5.0616	105
5.0690	99
5.0764	96
5.0838	99
5.0912	103
5.0986	103
5.1060	116
5.1134	112
5.1208	100
5.1282	103
5.1356	104
5.1430	118
5.1504	102
5.1578	117
5.1652	97
5.1726	98
5.1800	113
5.1874	85
5.1948	123
5.2021	95
5.2095	91
5.2169	101
5.2243	131
5.2317	104
5.2391	84
5.2465	103
5.2539	99
5.2613	101
5.2687	92
5.2761	110
5.2835	90
5.2909	80
5.2983	96
5.3057	103
5.3131	95
5.3205	103
5.3279	104
5.3353	81
5.3427	110
5.3501	92
5.3574	106
5.3648	108
5.3722	95
5.3796	87
5.3870	90
5.3944	101
5.4018	110
5.4092	114
5.4166	89
5.4240	97
5.4314	80
5.4388	107
5.4462	108
5.4536	110
5.4610	113
5.4684	115
5.4758	109
5.4832	100
5.4906	95
5.4980	105
5.5054	91
5.5127	96
5.5201	96
5.5275	109
5.5349	89
5.5423	102
5.5497	91
5.5571	122
5.5645	95
5.5719	96
5.5793	125
5.5867	97
5.5941	97
5.6015	88
5.6089	92
5.6163	80
5.6237	95
5.6311	107
5.6385	92
5.6459	103
5.6533	103
5.6607	92
5.6680	93
5.6754	112
5.6828	96
5.6902	110
5.6976	98
5.7050	106
5.7124	98
5.7198	115
5.7272	102
5.7346	98
5.7420	99
5.7494	111
5.7568	114
5.7642	102
5.7716	105
5.7790	115
5.7864	106
5.7938	107
5.8012	124
5.8086	125
5.8160	139
5.8233	114
5.8307	130
5.8381	121
5.8455	144
5.8529	140
5.8603	145
5.8677	141
5.8751	154
5.8825	155
5.8899	162
5.8973	161
5.9047	183
5.9121	182
5.9195	150
5.9269	201
5.9343	215
5.9417	230
5.9491	234
5.9565	209
5.9639	284
5.9713	294
5.9786	350
5.9860	402
5.9934	408
6.0008	506
6.0082	520
6.0156	538
6.0230	623
6.0304	677
6.0378	696
6.0452	770
6.0526	699
6.0600	658
6.0674	628
6.0748	544
6.0822	482
6.0896	387
6.0970	323
6.1044	266
6.1118	250
6.1192	221
6.1266	202
6.1340	156
6.1413	155
6.1487	136
6.1561	138
6.1635	133
6.1709	135
6.1783	120
6.1857	109
6.1931	121
6.2005	118
6.2079	92
6.2153	109
6.2227	120
6.2301	105
6.2375	94
6.2449	92
6.2523	113
6.2597	103
6.2671	112
6.2745	98
6.2819	97
6.2893	94
6.2966	90
6.3040	92
6.3114	96
6.3188	100
6.3262	94
6.3336	101
6.3410	115
6.3484	90
6.3558	102
6.3632	91
6.3706	96
6.3780	101
6.3854	100
6.3928	78
6.4002	85
6.4076	91
6.4150	108
6.4224	85
6.4298	102
6.4372	108
6.4446	97
6.4519	81
6.4593	84
6.4667	89
6.4741	94
6.4815	78
6.4889	75
6.4963	84
6.5037	93
6.5111	95
6.5185	77
6.5259	103
6.5333	80
6.5407	89
6.5481	92
6.5555	102
6.5629	91
6.5703	75
6.5777	94
6.5851	100
6.5925	93
6.5999	88
6.6072	96
6.6146	83
6.6220	81
6.6294	90
6.6368	91
6.6442	104
6.6516	95
6.6590	88
6.6664	103
6.6738	106
6.6812	82
6.6886	87
6.6960	92
6.7034	89
6.7108	77
6.7182	105
6.7256	81
6.7330	100
6.7404	92
6.7478	88
6.7552	87
6.7625	68
6.7699	95
6.7773	62
6.7847	77
6.7921	85
6.7995	92
6.8069	101
6.8143	89
6.8217	95
6.8291	96
6.8365	85
6.8439	76
6.8513	88
6.8587	66
6.8661	86
6.8735	86
6.8809	78
6.8883	90
6.8957	79
6.9031	77
6.9105	75
6.9178	82
6.9252	87
6.9326	69
6.9400	84
6.9474	78
6.9548	90
6.9622	93
6.9696	84
6.9770	93
6.9844	97
6.9918	73
6.9992	83
7.0066	103
7.0140	82
7.0214	94
7.0288	85
7.0362	87
7.0436	78
7.0510	84
7.0584	90
7.0658	85
7.0731	80
7.0805	64
7.0879	85
7.0953	81
7.1027	96
7.1101	81
7.1175	88
7.1249	80
7.1323	82
7.1397	97
7.1471	82
7.1545	79
7.1619	86
7.1693	84
7.1767	81
7.1841	93
7.1915	79
7.1989	87
7.2063	103
7.2137	98
7.2211	64
7.2284	72
7.2358	75
7.2432	79
7.2506	95
7.2580	79
7.2654	67
7.2728	116
7.2802	82
7.2876	80
7.2950	67
7.3024	80
7.3098	79
7.3172	88
7.3246	71
7.3320	88
7.3394	91
7.3468	69
7.3542	74
7.3616	73
7.3690	96
7.3764	87
7.3837	72
7.3911	76
7.3985	72
7.4059	114
7.4133	76
7.4207	81
7.4281	71
7.4355	80
7.4429	63
7.4503	79
7.4577	86
7.4651	71
7.4725	82
7.4799	92
7.4873	86
7.4947	84
7.5021	80
7.5095	67
7.5169	67
7.5243	88
7.5317	93
7.5390	90
7.5464	89
7.5538	68
7.5612	97
7.5686	82
7.5760	70
7.5834	80
7.5908	83
7.5982	92
7.6056	83
7.6130	86
7.6204	83
7.6278	69
7.6352	76
7.6426	93
7.6500	77
7.6574	95
7.6648	86
7.6722	84
7.6796	86
7.6870	82
7.6944	92
7.7017	91
7.7091	89
7.7165	98
7.7239	75
7.7313	83
7.7387	73
7.7461	90
7.7535	92
7.7609	97
7.7683	75
7.7757	79
7.7831	76
7.7905	87
7.7979	66
7.8053	80
7.8127	83
7.8201	95
7.8275	90
7.8349	94
7.8423	91
7.8497	75
7.8570	88
7.8644	93
7.8718	81
7.8792	87
7.8866	101
7.8940	73
7.9014	103
7.9088	84
7.9162	85
7.9236	80
7.9310	85
7.9384	77
7.9458	88
7.9532	88
7.9606	77
7.9680	99
7.9754	74
7.9828	88
7.9902	96
7.9976	76
8.0050	90
8.0123	83
8.0197	102
8.0271	75
8.0345	91
8.0419	84
8.0493	95
8.0567	99
8.0641	74
8.0715	81
8.0789	85
8.0863	88
8.0937	83
8.1011	83
8.1085	76
8.1159	83
8.1233	81
8.1307	89
8.1381	92
8.1455	81
8.1529	92
8.1603	102
8.1676	87
8.1750	86
8.1824	85
8.1898	102
8.1972	85
8.2046	85
8.2120	99
8.2194	102
8.2268	116
8.2342	106
8.2416	101
8.2490	100
8.2564	113
8.2638	112
8.2712	123
8.2786	140
8.2860	126
8.2934	135
8.3008	132
8.3082	140
8.3156	148
8.3229	156
8.3303	162
8.3377	158
8.3451	169
8.3525	182
8.3599	170
8.3673	210
8.3747	204
8.3821	218
8.3895	225
8.3969	238
8.4043	258
8.4117	286
8.4191	303
8.4265	364
8.4339	376
8.4413	408
8.4487	462
8.4561	511
8.4635	637
8.4709	729
8.4782	791
8.4856	924
8.4930	1093
8.5004	1284
8.5078	1477
8.5152	1735
8.5226	1861
8.5300	2056
8.5374	2036
8.5448	2102
8.5522	1974
8.5596	1924
8.5670	1689
8.5744	1521
8.5818	1284
8.5892	1054
8.5966	825
8.6040	654
8.6114	526
8.6188	441
8.6262	350
8.6335	277
8.6409	210
8.6483	190
8.6557	169
8.6631	161
8.6705	145
8.6779	156
8.6853	143
8.6927	128
8.7001	111
8.7075	125
8.7149	134
8.7223	115
8.7297	94
8.7371	130
8.7445	123
8.7519	108
8.7593	102
8.7667	110
8.7741	97
8.7815	107
8.7888	103
8.7962	127
8.8036	108
8.8110	115
8.8184	105
8.8258	93
8.8332	108
8.8406	94
8.8480	93
8.8554	78
8.8628	107
8.8702	78
8.8776	79
8.8850	103
8.8924	100
8.8998	86
8.9072	96
8.9146	129
8.9220	116
8.9294	89
8.9368	94
8.9441	94
8.9515	104
8.9589	107
8.9663	96
8.9737	95
8.9811	91
8.9885	93
8.9959	101
9.0033	104
9.0107	89
9.0181	75
9.0255	117
9.0329	100
9.0403	91
9.0477	106
9.0551	110
9.0625	98
9.0699	106
9.0773	94
9.0847	95
9.0921	91
9.0994	74
9.1068	104
9.1142	88
9.1216	92
9.1290	89
9.1364	83
9.1438	78
9.1512	95
9.1586	91
9.1660	96
9.1734	92
9.1808	88
9.1882	79
9.1956	89
9.2030	86
9.2104	93
9.2178	106
9.2252	92
9.2326	72
9.2400	95
9.2474	100
9.2548	70
9.2621	108
9.2695	84
9.2769	109
9.2843	87
9.2917	105
9.2991	90
9.3065	97
9.3139	97
9.3213	84
9.3287	102
9.3361	98
9.3435	101
9.3509	109
9.3583	80
9.3657	76
9.3731	88
9.3805	86
9.3879	95
9.3953	88
9.4027	89
9.4101	97
9.4174	78
9.4248	105
9.4322	81
9.4396	88
9.4470	103
9.4544	96
9.4618	102
9.4692	104
9.4766	89
9.4840	82
9.4914	91
9.4988	78
9.5062	85
9.5136	82
9.5210	92
9.5284	82
9.5358	85
9.5432	61
9.5506	86
9.5580	91
9.5654	95
9.5727	80
9.5801	94
9.5875	88
9.5949	75
9.6023	103
9.6097	81
9.6171	76
9.6245	93
9.6319	81
9.6393	91
9.6467	92
9.6541	107
9.6615	73
9.6689	73
9.6763	89
9.6837	97
9.6911	91
9.6985	86
9.7059	100
9.7133	110
9.7207	83
9.7280	103
9.7354	81
9.7428	98
9.7502	95
9.7576	81
9.7650	100
9.7724	99
9.7798	105
9.7872	83
9.7946	83
9.8020	87
9.8094	89
9.8168	85
9.8242	74
9.8316	94
9.8390	100
9.8464	96
9.8538	76
9.8612	97
9.8686	107
9.8760	87
9.8833	95
9.8907	92
9.8981	93
9.9055	99
9.9129	81
9.9203	84
9.9277	90
9.9351	100
9.9425	85
9.9499	72
9.9573	96
9.9647	96
9.9721	63
9.9795	99
9.9869	76
9.9943	87
10.0017	107
10.0091	77
10.0165	88
10.0239	99
10.0313	80
10.0386	86
10.0460	97
10.0534	93
10.0608	86
10.0682	89
10.0756	90
10.0830	76
10.0904	107
10.0978	89
10.1052	96
10.1126	81
10.1200	87
10.1274	80
10.1348	108
10.1422	86
10.1496	78
10.1570	85
10.1644	95
10.1718	86
10.1792	95
10.1866	85
10.1939	77
10.2013	77
10.2087	104
10.2161	76
10.2235	101
10.2309	101
10.2383	93
10.2457	98
10.2531	78
10.2605	85
10.2679	96
10.2753	100
10.2827	90
10.2901	81
10.2975	89
10.3049	95
10.3123	91
10.3197	90
10.3271	91
10.3345	87
10.3419	83
10.3492	101
10.3566	102
10.3640	94
10.3714	88
10.3788	109
10.3862	90
10.3936	84
10.4010	67
10.4084	91
10.4158	77
10.4232	84
10.4306	99
10.4380	90
10.4454	83
10.4528	88
10.4602	93
10.4676	86
10.4750	81
10.4824	94
10.4898	81
10.4972	87
10.5045	82
10.5119	91
10.5193	90
10.5267	84
10.5341	76
10.5415	85
10.5489	70
10.5563	89
10.5637	83
10.5711	98
10.5785	91
10.5859	72
10.5933	89
10.6007	115
10.6081	97
10.6155	91
10.6229	84
10.6303	91
10.6377	80
10.6451	102
10.6525	80
10.6598	79
10.6672	102
10.6746	87
10.6820	67
10.6894	83
10.6968	82
10.7042	74
10.7116	84
10.7190	100
10.7264	92
10.7338	91
10.7412	91
10.7486	70
10.7560	86
10.7634	100
10.7708	81
10.7782	85
10.7856	90
10.7930	101
10.8004	88
10.8078	89
10.8151	100
10.8225	93
10.8299	101
10.8373	84
10.8447	83
10.8521	92
10.8595	85
10.8669	91
10.8743	85
10.8817	102
10.8891	99
10.8965	98
10.9039	77
10.9113	96
10.9187	77
10.9261	85
10.9335	73
10.9409	75
10.9483	81
10.9557	86
10.9631	85
10.9705	88
10.9778	77
10.9852	68
10.9926	89
11.0000	93
11.0074	73
11.0148	98
11.0222	97
11.0296	78
11.0370	109
11.0444	96
11.0518	91
11.0592	72
11.0666	91
11.0740	79
11.0814	79
11.0888	74
11.0962	104
11.1036	77
11.1110	100
11.1184	96
11.1258	89
11.1331	108
11.1405	94
11.1479	109
11.1553	98
11.1627	100
11.1701	99
11.1775	87
11.1849	104
11.1923	89
11.1997	106
11.2071	93
11.2145	103
11.2219	92
11.2293	79
11.2367	74
11.2441	112
11.2515	93
11.2589	79
11.2663	84
11.2737	100
11.2811	93
11.2884	80
11.2958	94
11.3032	88
11.3106	95
11.3180	102
11.3254	91
11.3328	104
11.3402	89
11.3476	109
11.3550	94
11.3624	99
11.3698	104
11.3772	98
11.3846	93
11.3920	96
11.3994	93
11.4068	97
11.4142	101
11.4216	94
11.4290	98
11.4364	102
11.4437	105
11.4511	102
11.4585	103
11.4659	102
11.4733	92
11.4807	97
11.4881	110
11.4955	89
11.5029	100
11.5103	91
11.5177	109
11.5251	111
11.5325	103
11.5399	111
11.5473	111
11.5547	100
11.5621	103
11.5695	129
11.5769	115
11.5843	104
11.5917	117
11.5990	149
11.6064	137
11.6138	139
11.6212	192
11.6286	179
11.6360	155
11.6434	192
11.6508	231
11.6582	245
11.6656	261
11.6730	318
11.6804	356
11.6878	368
11.6952	446
11.7026	516
11.7100	556
11.7174	613
11.7248	645
11.7322	697
11.7396	698
11.7470	618
11.7543	570
11.7617	523
11.7691	500
11.7765	445
11.7839	371
11.7913	319
11.7987	263
11.8061	230
11.8135	188
11.8209	164
11.8283	147
11.8357	122
11.8431	120
11.8505	110
11.8579	104
11.8653	118
11.8727	104
11.8801	123
11.8875	105
11.8949	115
11.9023	116
11.9096	137
11.9170	111
11.9244	104
11.9318	98
11.9392	119
11.9466	136
11.9540	125
11.9614	110
11.9688	122
11.9762	125
11.9836	145
11.9910	158
11.9984	156
12.0058	144
12.0132	143
12.0206	165
12.0280	139
12.0354	146
12.0428	145
12.0502	135
12.0576	163
12.0649	146
12.0723	156
12.0797	131
12.0871	131
12.0945	130
12.1019	149
12.1093	125
12.1167	129
12.1241	151
12.1315	116
12.1389	146
12.1463	147
12.1537	142
12.1611	154
12.1685	138
12.1759	175
12.1833	157
12.1907	182
12.1981	178
12.2055	178
12.2129	173
12.2202	170
12.2276	201
12.2350	215
12.2424	284
12.2498	266
12.2572	306
12.2646	377
12.2720	380
12.2794	445
12.2868	454
12.2942	527
12.3016	571
12.3090	669
12.3164	718
12.3238	883
12.3312	1004
12.3386	1167
12.3460	1380
12.3534	1585
12.3608	1856
12.3682	1820
12.3755	1931
12.3829	1946
12.3903	1884
12.3977	1762
12.4051	1581
12.4125	1482
12.4199	1270
12.4273	1091
12.4347	961
12.4421	741
12.4495	612
12.4569	525
12.4643	435
12.4717	391
12.4791	316
12.4865	249
12.4939	252
12.5013	238
12.5087	219
12.5161	197
12.5235	199
12.5309	219
12.5382	190
12.5456	158
12.5530	171
12.5604	168
12.5678	144
12.5752	146
12.5826	136
12.5900	143
12.5974	148
12.6048	125
12.6122	122
12.6196	142
12.6270	103
12.6344	111
12.6418	133
12.6492	113
12.6566	119
12.6640	119
12.6714	125
12.6788	101
12.6862	108
12.6935	145
12.7009	128
12.7083	103
12.7157	134
12.7231	126
12.7305	132
12.7379	122
12.7453	112
12.7527	111
12.7601	143
12.7675	113
12.7749	131
12.7823	103
12.7897	98
12.7971	108
12.8045	123
12.8119	125
12.8193	110
12.8267	118
12.8341	124
12.8415	119
12.8488	106
12.8562	112
12.8636	103
12.8710	105
12.8784	126
12.8858	112
12.8932	132
12.9006	127
12.9080	116
12.9154	122
12.9228	118
12.9302	105
12.9376	108
12.9450	110
12.9524	130
12.9598	114
12.9672	107
12.9746	100
12.9820	100
12.9894	115
12.9968	123
13.0041	104
13.0115	119
13.0189	118
13.0263	130
13.0337	118
13.0411	109
13.0485	125
13.0559	123
13.0633	118
13.0707	111
13.0781	137
13.0855	137
13.0929	130
13.1003	137
13.1077	118
13.1151	160
13.1225	130
13.1299	170
13.1373	171
13.1447	160
13.1521	181
13.1594	190
13.1668	206
13.1742	204
13.1816	231
13.1890	268
13.1964	311
13.2038	344
13.2112	439
13.2186	473
13.2260	568
13.2334	619
13.2408	661
13.2482	747
13.2556	797
13.2630	818
13.2704	811
13.2778	780
13.2852	704
13.2926	665
13.3000	565
13.3074	509
13.3147	434
13.3221	369
13.3295	323
13.3369	242
13.3443	221
13.3517	190
13.3591	177
13.3665	181
13.3739	149
13.3813	140
13.3887	161
13.3961	130
13.4035	119
13.4109	138
13.4183	149
13.4257	143
13.4331	141
13.4405	165
13.4479	148
13.4553	141
13.4627	142
13.4700	154
13.4774	147
13.4848	137
13.4922	146
13.4996	154
13.5070	140
13.5144	150
13.5218	157
13.5292	179
13.5366	202
13.5440	156
13.5514	195
13.5588	217
13.5662	208
13.5736	207
13.5810	239
13.5884	279
13.5958	313
13.6032	362
13.6106	386
13.6180	437
13.6253	512
13.6327	607
13.6401	767
13.6475	862
13.6549	1030
13.6623	1150
13.6697	1349
13.6771	1514
13.6845	1693
13.6919	1725
13.6993	1759
13.7067	1714
13.7141	1757
13.7215	1635
13.7289	1522
13.7363	1353
13.7437	1149
13.7511	950
13.7585	760
13.7659	649
13.7733	522
13.7806	401
13.7880	334
13.7954	281
13.8028	234
13.8102	207
13.8176	183
13.8250	180
13.8324	155
13.8398	167
13.8472	143
13.8546	164
13.8620	143
13.8694	160
13.8768	152
13.8842	133
13.8916	145
13.8990	139
13.9064	137
13.9138	134
13.9212	157
13.9286	118
13.9359	122
13.9433	135
13.9507	120
13.9581	136
13.9655	122
13.9729	112
13.9803	130
13.9877	143
13.9951	111
14.0025	121
14.0099	124
14.0173	161
14.0247	121
14.0321	119
14.0395	116
14.0469	133
14.0543	122
14.0617	110
14.0691	110
14.0765	120
14.0839	132
14.0913	114
14.0986	122
14.1060	115
14.1134	120
14.1208	124
14.1282	109
14.1356	129
14.1430	100
14.1504	119
14.1578	147
14.1652	114
14.1726	114
14.1800	130
14.1874	133
14.1948	117
14.2022	124
14.2096	129
14.2170	110
14.2244	122
14.2318	109
14.2392	116
14.2466	124
14.2539	137
14.2613	131
14.2687	119
14.2761	123
14.2835	149
14.2909	122
14.2983	141
14.3057	178
14.3131	148
14.3205	161
14.3279	159
14.3353	195
14.3427	199
14.3501	188
14.3575	237
14.3649	273
14.3723	307
14.3797	345
14.3871	325
14.3945	381
14.4019	397
14.4092	420
14.4166	416
14.4240	419
14.4314	400
14.4388	333
14.4462	338
14.4536	305
14.4610	259
14.4684	262
14.4758	228
14.4832	181
14.4906	167
14.4980	153
14.5054	141
14.5128	144
14.5202	141
14.5276	125
14.5350	126
14.5424	97
14.5498	107
14.5572	116
14.5645	117
14.5719	103
14.5793	122
14.5867	121
14.5941	123
14.6015	99
14.6089	112
14.6163	107
14.6237	131
14.6311	126
14.6385	131
14.6459	116
14.6533	141
14.6607	117
14.6681	129
14.6755	140
14.6829	126
14.6903	140
14.6977	121
14.7051	132
14.7125	137
14.7198	155
14.7272	175
14.7346	168
14.7420	186
14.7494	194
14.7568	214
14.7642	230
14.7716	216
14.7790	246
14.7864	235
14.7938	248
14.8012	266
14.8086	272
14.8160	262
14.8234	253
14.8308	253
14.8382	230
14.8456	267
14.8530	229
14.8604	221
14.8678	206
14.8751	211
14.8825	200
14.8899	173
14.8973	155
14.9047	163
14.9121	136
14.9195	156
14.9269	148
14.9343	130
14.9417	140
14.9491	132
14.9565	106
14.9639	130
14.9713	138
14.9787	123
14.9861	118
14.9935	139
15.0009	120
15.0083	129
15.0157	116
15.0231	113
15.0304	103
15.0378	114
15.0452	113
15.0526	116
15.0600	97
15.0674	106
15.0748	108
15.0822	112
15.0896	97
15.0970	106
15.1044	99
15.1118	116
15.1192	125
15.1266	124
15.1340	128
15.1414	129
15.1488	141
15.1562	136
15.1636	130
15.1710	127
15.1784	162
15.1857	166
15.1931	166
15.2005	190
15.2079	183
15.2153	193
15.2227	165
15.2301	223
15.2375	198
15.2449	225
15.2523	213
15.2597	226
15.2671	227
15.2745	208
15.2819	214
15.2893	190
15.2967	216
15.3041	185
15.3115	172
15.3189	163
15.3263	150
15.3337	175
15.3410	149
15.3484	138
15.3558	133
15.3632	126
15.3706	128
15.3780	115
15.3854	123
15.3928	125
15.4002	128
15.4076	102
15.4150	117
15.4224	134
15.4298	116
15.4372	111
15.4446	155
15.4520	104
15.4594	130
15.4668	118
15.4742	117
15.4816	118
15.4890	132
15.4963	130
15.5037	136
15.5111	165
15.5185	159
15.5259	183
15.5333	189
15.5407	202
15.5481	213
15.5555	209
15.5629	226
15.5703	208
15.5777	215
15.5851	188
15.5925	177
15.5999	182
15.6073	185
15.6147	128
15.6221	142
15.6295	130
15.6369	121
15.6443	112
15.6516	114
15.6590	116
15.6664	119
15.6738	113
15.6812	110
15.6886	118
15.6960	116
15.7034	89
15.7108	116
15.7182	91
15.7256	108
15.7330	98
15.7404	104
15.7478	85
15.7552	111
15.7626	88
15.7700	100
15.7774	98
15.7848	97
15.7922	86
15.7996	113
15.8070	96
15.8143	98
15.8217	97
15.8291	93
15.8365	94
15.8439	102
15.8513	95
15.8587	103
15.8661	107
15.8735	109
15.8809	116
15.8883	90
15.8957	90
15.9031	80
15.9105	88
15.9179	83
15.9253	105
15.9327	86
15.9401	95
15.9475	96
15.9549	116
15.9623	88
15.9696	100
15.9770	96
15.9844	109
15.9918	99
15.9992	105
16.0066	87
16.0140	105
16.0214	102
16.0288	102
16.0362	102
16.0436	92
16.0510	89
16.0584	92
16.0658	82
16.0732	98
16.0806	85
16.0880	95
16.0954	107
16.1028	95
16.1102	104
16.1176	105
16.1249	112
16.1323	115
16.1397	85
16.1471	95
16.1545	89
16.1619	102
16.1693	94
16.1767	105
16.1841	89
16.1915	107
16.1989	104
16.2063	98
16.2137	92
16.2211	113
16.2285	108
16.2359	86
16.2433	95
16.2507	109
16.2581	98
16.2655	116
16.2729	104
16.2802	88
16.2876	106
16.2950	95
16.3024	102
16.3098	113
16.3172	79
16.3246	99
16.3320	109
16.3394	131
16.3468	103
16.3542	107
16.3616	112
16.3690	107
16.3764	107
16.3838	89
16.3912	80
16.3986	107
16.4060	104
16.4134	117
16.4208	105
16.4282	111
16.4355	111
16.4429	110
16.4503	113
16.4577	113
16.4651	121
16.4725	88
16.4799	102
16.4873	94
16.4947	124
16.5021	121
16.5095	96
16.5169	106
16.5243	126
16.5317	99
16.5391	111
16.5465	109
16.5539	115
16.5613	118
16.5687	105
16.5761	101
16.5835	122
16.5908	112
16.5982	135
16.6056	108
16.6130	123
16.6204	121
16.6278	130
16.6352	134
16.6426	131
16.6500	131
16.6574	159
16.6648	140
16.6722	124
16.6796	160
16.6870	149
16.6944	182
16.7018	198
16.7092	188
16.7166	234
16.7240	254
16.7314	273
16.7388	285
16.7461	319
16.7535	357
16.7609	428
16.7683	476
16.7757	601
16.7831	688
16.7905	813
16.7979	1025
16.8053	1111
16.8127	1343
16.8201	1422
16.8275	1511
16.8349	1567
16.8423	1647
16.8497	1675
16.8571	1641
16.8645	1516
16.8719	1356
16.8793	1266
16.8867	1050
16.8941	918
16.9014	791
16.9088	695
16.9162	574
16.9236	451
16.9310	419
16.9384	304
16.9458	303
16.9532	292
16.9606	309
16.9680	283
16.9754	287
16.9828	277
16.9902	341
16.9976	400
17.0050	469
17.0124	583
17.0198	601
17.0272	668
17.0346	663
17.0420	768
17.0494	779
17.0567	755
17.0641	773
17.0715	740
17.0789	672
17.0863	642
17.0937	579
17.1011	511
17.1085	469
17.1159	376
17.1233	341
17.1307	297
17.1381	256
17.1455	215
17.1529	206
17.1603	186
17.1677	151
17.1751	142
17.1825	160
17.1899	140
17.1973	124
17.2047	137
17.2120	138
17.2194	141
17.2268	128
17.2342	110
17.2416	146
17.2490	140
17.2564	140
17.2638	132
17.2712	138
17.2786	124
17.2860	132
17.2934	119
17.3008	112
17.3082	124
17.3156	131
17.3230	135
17.3304	108
17.3378	140
17.3452	130
17.3526	112
17.3600	136
17.3674	111
17.3747	129
17.3821	114
17.3895	118
17.3969	146
17.4043	131
17.4117	104
17.4191	117
17.4265	108
17.4339	131
17.4413	128
17.4487	109
17.4561	113
17.4635	130
17.4709	125
17.4783	129
17.4857	129
17.4931	127
17.5005	150
17.5079	155
17.5153	164
17.5227	159
17.5300	166
17.5374	169
17.5448	156
17.5522	173
17.5596	186
17.5670	201
17.5744	206
17.5818	194
17.5892	238
17.5966	239
17.6040	240
17.6114	244
17.6188	316
17.6262	287
17.6336	301
17.6410	299
17.6484	332
17.6558	307
17.6632	279
17.6706	275
17.6780	295
17.6853	265
17.6927	262
17.7001	272
17.7075	255
17.7149	305
17.7223	261
17.7297	298
17.7371	345
17.7445	348
17.7519	408
17.7593	470
17.7667	478
17.7741	611
17.7815	751
17.7889	929
17.7963	1003
17.8037	1149
17.8111	1348
17.8185	1473
17.8259	1604
17.8333	1669
17.8406	1856
17.8480	1871
17.8554	1801
17.8628	1903
17.8702	1742
17.8776	1730
17.8850	1520
17.8924	1313
17.8998	1205
17.9072	1053
17.9146	934
17.9220	842
17.9294	642
17.9368	570
17.9442	477
17.9516	378
17.9590	307
17.9664	280
17.9738	236
17.9812	214
17.9886	214
17.9959	200
18.0033	171
18.0107	179
18.0181	160
18.0255	162
18.0329	162
18.0403	140
18.0477	167
18.0551	166
18.0625	175
18.0699	147
18.0773	130
18.0847	146
18.0921	142
18.0995	152
18.1069	148
18.1143	139
18.1217	160
18.1291	143
18.1365	123
18.1439	131
18.1512	139
18.1586	137
18.1660	115
18.1734	139
18.1808	159
18.1882	111
18.1956	150
18.2030	121
18.2104	130
18.2178	147
18.2252	119
18.2326	119
18.2400	121
18.2474	128
18.2548	134
18.2622	118
18.2696	146
18.2770	124
18.2844	136
18.2918	136
18.2992	140
18.3065	146
18.3139	141
18.3213	135
18.3287	132
18.3361	149
18.3435	156
18.3509	140
18.3583	127
18.3657	149
18.3731	158
18.3805	143
18.3879	189
18.3953	170
18.4027	180
18.4101	176
18.4175	185
18.4249	202
18.4323	209
18.4397	202
18.4471	229
18.4545	275
18.4618	276
18.4692	328
18.4766	318
18.4840	416
18.4914	470
18.4988	503
18.5062	684
18.5136	782
18.5210	971
18.5284	1164
18.5358	1444
18.5432	1606
18.5506	1776
18.5580	2062
18.5654	2251
18.5728	2345
18.5802	2417
18.5876	2376
18.5950	2195
18.6024	2255
18.6098	1983
18.6171	1816
18.6245	1695
18.6319	1421
18.6393	1270
18.6467	1123
18.6541	937
18.6615	857
18.6689	689
18.6763	601
18.6837	553
18.6911	480
18.6985	400
18.7059	348
18.7133	355
18.7207	294
18.7281	292
18.7355	239
18.7429	240
18.7503	235
18.7577	216
18.7651	190
18.7724	224
18.7798	244
18.7872	203
18.7946	216
18.8020	181
18.8094	235
18.8168	208
18.8242	200
18.8316	217
18.8390	262
18.8464	245
18.8538	249
18.8612	241
18.8686	274
18.8760	290
18.8834	289
18.8908	322
18.8982	294
18.9056	363
18.9130	352
18.9204	415
18.9278	408
18.9351	434
18.9425	451
18.9499	449
18.9573	437
18.9647	508
18.9721	507
18.9795	496
18.9869	544
18.9943	470
19.0017	456
19.0091	435
19.0165	404
19.0239	430
19.0313	378
19.0387	370
19.0461	331
19.0535	307
19.0609	265
19.0683	267
19.0757	225
19.0831	238
19.0904	210
19.0978	176
19.1052	183
19.1126	182
19.1200	177
19.1274	165
19.1348	149
19.1422	149
19.1496	146
19.1570	139
19.1644	149
19.1718	133
19.1792	138
19.1866	133
19.1940	115
19.2014	124
19.2088	148
19.2162	113
19.2236	123
19.2310	148
19.2384	136
19.2457	141
19.2531	124
19.2605	126
19.2679	123
19.2753	126
19.2827	138
19.2901	117
19.2975	115
19.3049	127
19.3123	116
19.3197	120
19.3271	98
19.3345	104
19.3419	122
19.3493	113
19.3567	138
19.3641	127
19.3715	99
19.3789	136
19.3863	133
19.3937	165
19.4010	130
19.4084	165
19.4158	173
19.4232	190
19.4306	205
19.4380	231
19.4454	257
19.4528	239
19.4602	300
19.4676	340
19.4750	334
19.4824	375
19.4898	350
19.4972	361
19.5046	357
19.5120	338
19.5194	333
19.5268	319
19.5342	310
19.5416	353
19.5490	288
19.5563	263
19.5637	241
19.5711	237
19.5785	198
19.5859	208
19.5933	227
19.6007	191
19.6081	195
19.6155	187
19.6229	184
19.6303	180
19.6377	168
19.6451	173
19.6525	141
19.6599	135
19.6673	145
19.6747	138
19.6821	115
19.6895	135
19.6969	115
19.7043	120
19.7116	139
19.7190	135
19.7264	126
19.7338	104
19.7412	110
19.7486	114
19.7560	99
19.7634	116
19.7708	116
19.7782	101
19.7856	115
19.7930	122
19.8004	110
19.8078	118
19.8152	128
19.8226	120
19.8300	125
19.8374	124
19.8448	112
19.8522	136
19.8596	128
19.8669	134
19.8743	125
19.8817	138
19.8891	110
19.8965	124
19.9039	125
19.9113	102
19.9187	125
19.9261	118
19.9335	98
19.9409	103
19.9483	110
19.9557	114
19.9631	120
19.9705	111
19.9779	125
19.9853	117
19.9927	119
20.0001	125
20.0075	129
20.0149	118
20.0222	129
20.0296	115
20.0370	124
20.0444	148
20.0518	123
20.0592	114
20.0666	118
20.0740	132
20.0814	117
20.0888	114
20.0962	140
20.1036	130
20.1110	135
20.1184	138
20.1258	145
20.1332	98
20.1406	130
20.1480	108
20.1554	121
20.1628	117
20.1702	141
20.1775	140
20.1849	109
20.1923	127
20.1997	126
20.2071	163
20.2145	145
20.2219	149
20.2293	137
20.2367	176
20.2441	151
20.2515	178
20.2589	151
20.2663	169
20.2737	180
20.2811	186
20.2885	182
20.2959	206
20.3033	209
20.3107	200
20.3181	194
20.3255	201
20.3328	202
20.3402	215
20.3476	201
20.3550	192
20.3624	192
20.3698	204
20.3772	210
20.3846	203
20.3920	222
20.3994	229
20.4068	234
20.4142	263
20.4216	264
20.4290	308
20.4364	297
20.4438	373
20.4512	429
20.4586	520
20.4660	618
20.4734	745
20.4808	927
20.4882	1120
20.4955	1318
20.5029	1628
20.5103	1756
20.5177	2018
20.5251	2165
20.5325	2309
20.5399	2366
20.5473	2313
20.5547	2353
20.5621	2213
20.5695	2006
20.5769	1868
20.5843	1651
20.5917	1483
20.5991	1304
20.6065	1157
20.6139	988
20.6213	776
20.6287	704
20.6361	539
20.6435	483
20.6508	393
20.6582	360
20.6656	291
20.6730	296
20.6804	244
20.6878	225
20.6952	233
20.7026	228
20.7100	230
20.7174	219
20.7248	252
20.7322	221
20.7396	263
20.7470	272
20.7544	257
20.7618	263
20.7692	261
20.7766	277
20.7840	294
20.7914	312
20.7988	254
20.8061	317
20.8135	257
20.8209	261
20.8283	291
20.8357	296
20.8431	281
20.8505	302
20.8579	309
20.8653	304
20.8727	315
20.8801	372
20.8875	411
20.8949	479
20.9023	508
20.9097	604
20.9171	612
20.9245	742
20.9319	835
20.9393	870
20.9467	945
20.9541	991
20.9614	1028
20.9688	1108
20.9762	1063
20.9836	1034
20.9910	1032
20.9984	969
21.0058	924
21.0132	861
21.0206	803
21.0280	736
21.0354	650
21.0428	630
21.0502	504
21.0576	494
21.0650	438
21.0724	395
21.0798	383
21.0872	312
21.0946	308
21.1020	263
21.1094	258
21.1167	250
21.1241	239
21.1315	217
21.1389	232
21.1463	202
21.1537	182
21.1611	202
21.1685	214
21.1759	177
21.1833	182
21.1907	190
21.1981	186
21.2055	187
21.2129	198
21.2203	179
21.2277	160
21.2351	188
21.2425	175
21.2499	200
21.2573	186
21.2647	160
21.2720	153
21.2794	193
21.2868	176
21.2942	183
21.3016	159
21.3090	180
21.3164	162
21.3238	198
21.3312	183
21.3386	158
21.3460	152
21.3534	165
21.3608	188
21.3682	182
21.3756	178
21.3830	186
21.3904	192
21.3978	193
21.4052	190
21.4126	199
21.4200	211
21.4273	252
21.4347	223
21.4421	245
21.4495	294
21.4569	305
21.4643	321
21.4717	368
21.4791	389
21.4865	456
21.4939	576
21.5013	644
21.5087	708
21.5161	812
21.5235	826
21.5309	862
21.5383	895
21.5457	876
21.5531	876
21.5605	886
21.5679	866
21.5753	785
21.5826	727
21.5900	663
21.5974	651
21.6048	613
21.6122	555
21.6196	556
21.6270	494
21.6344	445
21.6418	433
21.6492	452
21.6566	479
21.6640	493
21.6714	563
21.6788	584
21.6862	619
21.6936	697
21.7010	734
21.7084	766
21.7158	793
21.7232	783
21.7306	819
21.7379	846
21.7453	827
21.7527	846
21.7601	773
21.7675	701
21.7749	725
21.7823	722
21.7897	652
21.7971	618
21.8045	565
21.8119	521
21.8193	477
21.8267	484
21.8341	495
21.8415	427
21.8489	397
21.8563	409
21.8637	421
21.8711	460
21.8785	516
21.8859	570
21.8932	678
21.9006	772
21.9080	928
21.9154	1075
21.9228	1345
21.9302	1640
21.9376	2073
21.9450	2476
21.9524	3111
21.9598	3610
21.9672	4106
21.9746	4541
21.9820	4651
21.9894	4849
21.9968	4900
22.0042	4888
22.0116	4757
22.0190	4538
22.0264	4081
22.0338	3655
22.0412	3328
22.0485	2872
22.0559	2512
22.0633	2256
22.0707	1950
22.0781	1605
22.0855	1266
22.0929	1091
22.1003	813
22.1077	645
22.1151	543
22.1225	469
22.1299	380
22.1373	345
22.1447	331
22.1521	309
22.1595	254
22.1669	272
22.1743	238
22.1817	268
22.1891	215
22.1965	255
22.2039	225
22.2112	240
22.2186	217
22.2260	220
22.2334	216
22.2408	195
22.2482	202
22.2556	172
22.2630	194
22.2704	197
22.2778	194
22.2852	197
22.2926	176
22.3000	164
22.3074	171
22.3148	186
22.3222	170
22.3296	176
22.3370	177
22.3444	175
22.3518	163
22.3592	163
22.3665	163
22.3739	173
22.3813	174
22.3887	164
22.3961	161
22.4035	162
22.4109	175
22.4183	159
22.4257	169
22.4331	168
22.4405	150
22.4479	154
22.4553	172
22.4627	166
22.4701	160
22.4775	167
22.4849	145
22.4923	140
22.4997	155
22.5071	170
22.5145	151
22.5218	168
22.5292	152
22.5366	153
22.5440	156
22.5514	148
22.5588	142
22.5662	151
22.5736	152
22.5810	168
22.5884	155
22.5958	162
22.6032	174
22.6106	159
22.6180	161
22.6254	191
22.6328	160
22.6402	176
22.6476	174
22.6550	193
22.6624	220
22.6698	206
22.6771	219
22.6845	247
22.6919	251
22.6993	301
22.7067	333
22.7141	417
22.7215	470
22.7289	519
22.7363	606
22.7437	686
22.7511	744
22.7585	782
22.7659	843
22.7733	827
22.7807	808
22.7881	775
22.7955	739
22.8029	680
22.8103	672
22.8177	591
22.8251	533
22.8324	483
22.8398	463
22.8472	372
22.8546	362
22.8620	298
22.8694	271
22.8768	260
22.8842	227
22.8916	231
22.8990	185
22.9064	173
22.9138	172
22.9212	164
22.9286	147
22.9360	182
22.9434	157
22.9508	144
22.9582	139
22.9656	163
22.9730	154
22.9804	152
22.9877	156
22.9951	159
23.0025	131
23.0099	155
23.0173	134
23.0247	146
23.0321	155
23.0395	126
23.0469	167
23.0543	152
23.0617	142
23.0691	160
23.0765	125
23.0839	147
23.0913	133
23.0987	161
23.1061	127
23.1135	144
23.1209	122
23.1283	136
23.1357	107
23.1430	142
23.1504	130
23.1578	126
23.1652	143
23.1726	118
23.1800	156
23.1874	117
23.1948	133
23.2022	141
23.2096	141
23.2170	149
23.2244	140
23.2318	109
23.2392	133
23.2466	136
23.2540	116
23.2614	141
23.2688	152
23.2762	138
23.2836	134
23.2910	124
23.2983	132
23.3057	132
23.3131	138
23.3205	183
23.3279	130
23.3353	151
23.3427	151
23.3501	154
23.3575	113
23.3649	138
23.3723	145
23.3797	151
23.3871	136
23.3945	168
23.4019	152
23.4093	154
23.4167	153
23.4241	189
23.4315	184
23.4389	165
23.4463	249
23.4536	211
23.4610	257
23.4684	247
23.4758	289
23.4832	327
23.4906	336
23.4980	323
23.5054	316
23.5128	305
23.5202	330
23.5276	320
23.5350	250
23.5424	255
23.5498	272
23.5572	268
23.5646	256
23.5720	235
23.5794	209
23.5868	192
23.5942	179
23.6016	168
23.6089	178
23.6163	171
23.6237	137
23.6311	147
23.6385	164
23.6459	128
23.6533	153
23.6607	149
23.6681	149
23.6755	153
23.6829	157
23.6903	136
23.6977	145
23.7051	142
23.7125	149
23.7199	151
23.7273	157
23.7347	157
23.7421	160
23.7495	135
23.7569	166
23.7643	149
23.7716	149
23.7790	143
23.7864	147
23.7938	165
23.8012	137
23.8086	140
23.8160	166
23.8234	175
23.8308	166
23.8382	181
23.8456	205
23.8530	189
23.8604	194
23.8678	185
23.8752	231
23.8826	233
23.8900	224
23.8974	249
23.9048	257
23.9122	296
23.9196	345
23.9269	414
23.9343	494
23.9417	525
23.9491	649
23.9565	820
23.9639	981
23.9713	1095
23.9787	1274
23.9861	1426
23.9935	1451
24.0009	1561
24.0083	1636
24.0157	1702
24.0231	1529
24.0305	1549
24.0379	1455
24.0453	1369
24.0527	1310
24.0601	1207
24.0675	1111
24.0749	1027
24.0822	893
24.0896	824
24.0970	754
24.1044	646
24.1118	557
24.1192	501
24.1266	406
24.1340	399
24.1414	348
24.1488	364
24.1562	297
24.1636	318
24.1710	278
24.1784	259
24.1858	280
24.1932	256
24.2006	236
24.2080	225
24.2154	214
24.2228	231
24.2302	214
24.2375	240
24.2449	222
24.2523	242
24.2597	228
24.2671	231
24.2745	280
24.2819	278
24.2893	263
24.2967	312
24.3041	342
24.3115	355
24.3189	361
24.3263	404
24.3337	457
24.3411	513
24.3485	534
24.3559	572
24.3633	742
24.3707	779
24.3781	946
24.3855	989
24.3928	991
24.4002	1057
24.4076	1091
24.4150	1065
24.4224	1076
24.4298	979
24.4372	884
24.4446	874
24.4520	877
24.4594	816
24.4668	700
24.4742	634
24.4816	545
24.4890	497
24.4964	459
24.5038	389
24.5112	364
24.5186	299
24.5260	278
24.5334	219
24.5408	225
24.5481	193
24.5555	200
24.5629	223
24.5703	202
24.5777	189
24.5851	184
24.5925	182
24.5999	166
24.6073	208
24.6147	194
24.6221	191
24.6295	208
24.6369	181
24.6443	191
24.6517	200
24.6591	222
24.6665	192
24.6739	193
24.6813	200
24.6887	219
24.6961	203
24.7034	201
24.7108	234
24.7182	228
24.7256	262
24.7330	251
24.7404	268
24.7478	283
24.7552	326
24.7626	346
24.7700	344
24.7774	372
24.7848	428
24.7922	431
24.7996	464
24.8070	456
24.8144	474
24.8218	435
24.8292	467
24.8366	449
24.8440	436
24.8514	479
24.8587	440
24.8661	435
24.8735	389
24.8809	364
24.8883	375
24.8957	362
24.9031	356
24.9105	305
24.9179	343
24.9253	285
24.9327	268
24.9401	285
24.9475	289
24.9549	329
24.9623	287
24.9697	316
24.9771	300
24.9845	303
24.9919	336
24.9993	372
25.0067	383
25.0140	385
25.0214	368
25.0288	415
25.0362	425
25.0436	417
25.0510	377
25.0584	385
25.0658	386
25.0732	398
25.0806	368
25.0880	371
25.0954	360
25.1028	353
25.1102	319
25.1176	313
25.1250	311
25.1324	281
25.1398	252
25.1472	231
25.1546	231
25.1620	253
25.1693	202
25.1767	213
25.1841	200
25.1915	175
25.1989	233
25.2063	202
25.2137	173
25.2211	182
25.2285	181
25.2359	194
25.2433	173
25.2507	165
25.2581	160
25.2655	162
25.2729	157
25.2803	182
25.2877	152
25.2951	173
25.3025	168
25.3099	198
25.3173	181
25.3247	168
25.3320	169
25.3394	160
25.3468	174
25.3542	176
25.3616	183
25.3690	208
25.3764	219
25.3838	196
25.3912	223
25.3986	198
25.4060	213
25.4134	250
25.4208	264
25.4282	300
25.4356	339
25.4430	354
25.4504	422
25.4578	528
25.4652	595
25.4726	750
25.4800	786
25.4873	922
25.4947	1054
25.5021	1140
25.5095	1066
25.5169	1234
25.5243	1170
25.5317	1173
25.5391	1135
25.5465	1101
25.5539	1036
25.5613	948
25.5687	919
25.5761	832
25.5835	858
25.5909	741
25.5983	735
25.6057	728
25.6131	672
25.6205	689
25.6279	653
25.6353	639
25.6426	617
25.6500	565
25.6574	558
25.6648	556
25.6722	487
25.6796	475
25.6870	463
25.6944	437
25.7018	461
25.7092	423
25.7166	408
25.7240	365
25.7314	359
25.7388	339
25.7462	294
25.7536	284
25.7610	295
25.7684	271
25.7758	271
25.7832	278
25.7906	261
25.7979	264
25.8053	293
25.8127	339
25.8201	376
25.8275	412
25.8349	456
25.8423	484
25.8497	576
25.8571	587
25.8645	600
25.8719	649
25.8793	693
25.8867	661
25.8941	632
25.9015	668
25.9089	595
25.9163	644
25.9237	565
25.9311	545
25.9385	506
25.9459	465
25.9532	462
25.9606	432
25.9680	418
25.9754	402
25.9828	334
25.9902	282
25.9976	282
26.0050	252
26.0124	229
26.0198	220
26.0272	196
26.0346	218
26.0420	207
26.0494	214
26.0568	190
26.0642	206
26.0716	194
26.0790	191
26.0864	189
26.0938	177
26.1012	203
26.1085	175
26.1159	195
26.1233	191
26.1307	174
26.1381	196
26.1455	178
26.1529	191
26.1603	199
26.1677	192
26.1751	192
26.1825	188
26.1899	208
26.1973	203
26.2047	173
26.2121	186
26.2195	204
26.2269	179
26.2343	206
26.2417	170
26.2491	194
26.2565	197
26.2638	204
26.2712	203
26.2786	221
26.2860	231
26.2934	220
26.3008	228
26.3082	199
26.3156	227
26.3230	200
26.3304	238
26.3378	248
26.3452	253
26.3526	229
26.3600	254
26.3674	277
26.3748	290
26.3822	294
26.3896	338
26.3970	318
26.4044	367
26.4118	414
26.4191	442
26.4265	461
26.4339	514
26.4413	549
26.4487	666
26.4561	738
26.4635	882
26.4709	1051
26.4783	1212
26.4857	1422
26.4931	1783
26.5005	2234
26.5079	2851
26.5153	3200
26.5227	3633
26.5301	3974
26.5375	4306
26.5449	4430
26.5523	4450
26.5597	4413
26.5671	4394
26.5744	4157
26.5818	4041
26.5892	3883
26.5966	3646
26.6040	3292
26.6114	3134
26.6188	2752
26.6262	2578
26.6336	2439
26.6410	2072
26.6484	1739
26.6558	1598
26.6632	1374
26.6706	1114
26.6780	872
26.6854	748
26.6928	707
26.7002	590
26.7076	557
26.7150	482
26.7224	442
26.7297	496
26.7371	428
26.7445	347
26.7519	345
26.7593	338
26.7667	327
26.7741	308
26.7815	297
26.7889	237
26.7963	296
26.8037	263
26.8111	268
26.8185	247
26.8259	243
26.8333	244
26.8407	234
26.8481	217
26.8555	212
26.8629	255
26.8703	227
26.8777	191
26.8850	198
26.8924	200
26.8998	194
26.9072	214
26.9146	207
26.9220	177
26.9294	188
26.9368	208
26.9442	205
26.9516	195
26.9590	176
26.9664	178
26.9738	192
26.9812	191
26.9886	198
26.9960	175
27.0034	183
27.0108	164
27.0182	182
27.0256	175
27.0330	200
27.0404	173
27.0477	159
27.0551	190
27.0625	181
27.0699	181
27.0773	177
27.0847	191
27.0921	153
27.0995	165
27.1069	179
27.1143	170
27.1217	162
27.1291	149
27.1365	161
27.1439	174
27.1513	181
27.1587	161
27.1661	176
27.1735	174
27.1809	189
27.1883	162
27.1957	169
27.2030	190
27.2104	170
27.2178	173
27.2252	168
27.2326	179
27.2400	182
27.2474	191
27.2548	182
27.2622	180
27.2696	186
27.2770	167
27.2844	194
27.2918	189
27.2992	218
27.3066	182
27.3140	193
27.3214	191
27.3288	227
27.3362	231
27.3436	233
27.3510	250
27.3583	252
27.3657	273
27.3731	269
27.3805	300
27.3879	342
27.3953	310
27.4027	347
27.4101	381
27.4175	451
27.4249	511
27.4323	524
27.4397	575
27.4471	645
27.4545	754
27.4619	854
27.4693	918
27.4767	1025
27.4841	1129
27.4915	1154
27.4989	1163
27.5063	1128
27.5136	1109
27.5210	1083
27.5284	1054
27.5358	995
27.5432	885
27.5506	830
27.5580	839
27.5654	756
27.5728	716
27.5802	679
27.5876	609
27.5950	564
27.6024	524
27.6098	499
27.6172	421
27.6246	383
27.6320	385
27.6394	345
27.6468	301
27.6542	317
27.6616	275
27.6689	282
27.6763	266
27.6837	256
27.6911	239
27.6985	257
27.7059	247
27.7133	225
27.7207	276
27.7281	231
27.7355	222
27.7429	250
27.7503	209
27.7577	214
27.7651	242
27.7725	214
27.7799	234
27.7873	248
27.7947	261
27.8021	268
27.8095	267
27.8169	267
27.8242	292
27.8316	329
27.8390	338
27.8464	346
27.8538	349
27.8612	315
27.8686	317
27.8760	324
27.8834	340
27.8908	324
27.8982	330
27.9056	329
27.9130	334
27.9204	297
27.9278	327
27.9352	292
27.9426	306
27.9500	264
27.9574	276
27.9648	264
27.9722	279
27.9795	243
27.9869	250
27.9943	264
28.0017	224
28.0091	270
28.0165	233
28.0239	227
28.0313	242
28.0387	212
28.0461	217
28.0535	224
28.0609	226
28.0683	215
28.0757	240
28.0831	247
28.0905	223
28.0979	226
28.1053	239
28.1127	209
28.1201	194
28.1275	226
28.1348	210
28.1422	230
28.1496	230
28.1570	187
28.1644	213
28.1718	218
28.1792	207
28.1866	217
28.1940	204
28.2014	190
28.2088	170
28.2162	198
28.2236	229
28.2310	226
28.2384	195
28.2458	229
28.2532	210
28.2606	230
28.2680	182
28.2754	208
28.2828	227
28.2901	183
28.2975	220
28.3049	190
28.3123	209
28.3197	203
28.3271	208
28.3345	218
28.3419	222
28.3493	200
28.3567	217
28.3641	237
28.3715	286
28.3789	268
28.3863	308
28.3937	394
28.4011	454
28.4085	469
28.4159	571
28.4233	701
28.4307	802
28.4381	929
28.4454	1086
28.4528	1146
28.4602	1138
28.4676	1206
28.4750	1158
28.4824	1168
28.4898	1157
28.4972	1064
28.5046	1015
28.5120	999
28.5194	927
28.5268	875
28.5342	857
28.5416	754
28.5490	716
28.5564	662
28.5638	626
28.5712	488
28.5786	454
28.5860	397
28.5934	339
28.6008	302
28.6081	270
28.6155	246
28.6229	225
28.6303	229
28.6377	222
28.6451	194
28.6525	196
28.6599	195
28.6673	176
28.6747	184
28.6821	188
28.6895	197
28.6969	164
28.7043	172
28.7117	141
28.7191	158
28.7265	175
28.7339	152
28.7413	151
28.7487	147
28.7561	155
28.7634	154
28.7708	178
28.7782	161
28.7856	154
28.7930	172
28.8004	179
28.8078	171
28.8152	154
28.8226	162
28.8300	164
28.8374	172
28.8448	181
28.8522	198
28.8596	203
28.8670	215
28.8744	214
28.8818	263
28.8892	248
28.8966	276
28.9040	287
28.9114	281
28.9187	317
28.9261	324
28.9335	315
28.9409	320
28.9483	351
28.9557	384
28.9631	367
28.9705	399
28.9779	435
28.9853	451
28.9927	521
29.0001	503
29.0075	526
29.0149	617
29.0223	550
29.0297	556
29.0371	471
29.0445	482
29.0519	476
29.0593	440
29.0667	420
29.0740	388
29.0814	393
29.0888	362
29.0962	400
29.1036	367
29.1110	314
29.1184	298
29.1258	268
29.1332	261
29.1406	211
29.1480	194
29.1554	165
29.1628	163
29.1702	161
29.1776	177
29.1850	169
29.1924	144
29.1998	127
29.2072	160
29.2146	152
29.2220	137
29.2293	145
29.2367	133
29.2441	151
29.2515	140
29.2589	144
29.2663	121
29.2737	149
29.2811	141
29.2885	137
29.2959	139
29.3033	139
29.3107	165
29.3181	140
29.3255	124
29.3329	120
29.3403	156
29.3477	157
29.3551	137
29.3625	137
29.3699	148
29.3773	142
29.3846	172
29.3920	150
29.3994	145
29.4068	153
29.4142	134
29.4216	135
29.4290	148
29.4364	178
29.4438	163
29.4512	150
29.4586	169
29.4660	158
29.4734	143
29.4808	149
29.4882	172
29.4956	149
29.5030	156
29.5104	142
29.5178	152
29.5252	181
29.5326	169
29.5399	177
29.5473	186
29.5547	182
29.5621	190
29.5695	184
29.5769	171
29.5843	170
29.5917	148
29.5991	161
29.6065	161
29.6139	170
29.6213	148
29.6287	166
29.6361	149
29.6435	153
29.6509	147
29.6583	153
29.6657	146
29.6731	136
29.6805	145
29.6879	142
29.6952	119
29.7026	124
29.7100	146
29.7174	142
29.7248	127
29.7322	137
29.7396	136
29.7470	141
29.7544	148
29.7618	152
29.7692	131
29.7766	156
29.7840	124
29.7914	176
29.7988	140
29.8062	125
29.8136	95
29.8210	145
29.8284	133
29.8358	144
29.8432	131
29.8505	120
29.8579	149
29.8653	144
29.8727	134
29.8801	125
29.8875	124
29.8949	127
29.9023	130
29.9097	143
29.9171	134
29.9245	123
29.9319	128
29.9393	136
29.9467	152
29.9541	146
29.9615	113
29.9689	130
29.9763	134
29.9837	140
29.9911	141
29.9985	129
30.0058	142
30.0132	150
30.0206	140
30.0280	148
30.0354	148
30.0428	154
30.0502	160
30.0576	162
30.0650	176
30.0724	177
30.0798	151
30.0872	157
30.0946	164
30.1020	180
30.1094	151
30.1168	150
30.1242	149
30.1316	122
30.1390	146
30.1464	154
30.1538	152
30.1612	138
30.1685	149
30.1759	145
30.1833	151
30.1907	131
30.1981	130
30.2055	131
30.2129	128
30.2203	143
30.2277	143
30.2351	132
30.2425	149
30.2499	136
30.2573	149
30.2647	150
30.2721	159
30.2795	169
30.2869	149
30.2943	155
30.3017	148
30.3091	150
30.3165	156
30.3238	173
30.3312	172
30.3386	160
30.3460	167
30.3534	166
30.3608	179
30.3682	171
30.3756	172
30.3830	157
30.3904	192
30.3978	174
30.4052	168
30.4126	187
30.4200	182
30.4274	193
30.4348	180
30.4422	174
30.4496	177
30.4570	181
30.4644	190
30.4718	191
30.4791	183
30.4865	180
30.4939	182
30.5013	198
30.5087	220
30.5161	198
30.5235	187
30.5309	204
30.5383	214
30.5457	237
30.5531	208
30.5605	187
30.5679	201
30.5753	197
30.5827	196
30.5901	181
30.5975	208
30.6049	222
30.6123	200
30.6197	221
30.6271	226
30.6344	237
30.6418	229
30.6492	241
30.6566	250
30.6640	198
30.6714	206
30.6788	189
30.6862	198
30.6936	170
30.7010	202
30.7084	188
30.7158	182
30.7232	183
30.7306	192
30.7380	166
30.7454	155
30.7528	166
30.7602	164
30.7676	165
30.7750	139
30.7824	149
30.7897	161
30.7971	133
30.8045	143
30.8119	111
30.8193	104
30.8267	135
30.8341	144
30.8415	122
30.8489	129
30.8563	132
30.8637	115
30.8711	119
30.8785	121
30.8859	120
30.8933	101
30.9007	124
30.9081	117
30.9155	162
30.9229	127
30.9303	138
30.9377	134
30.9450	112
30.9524	120
30.9598	128
30.9672	131
30.9746	138
30.9820	118
30.9894	116
30.9968	138
31.0042	112
31.0116	121
31.0190	111
31.0264	114
31.0338	126
31.0412	116
31.0486	105
31.0560	105
31.0634	123
31.0708	137
31.0782	125
31.0856	114
31.0930	132
31.1003	128
31.1077	124
31.1151	120
31.1225	106
31.1299	107
31.1373	104
31.1447	98
31.1521	128
31.1595	112
31.1669	140
31.1743	112
31.1817	133
31.1891	119
31.1965	117
31.2039	104
31.2113	114
31.2187	146
31.2261	119
31.2335	124
31.2409	110
31.2483	121
31.2556	119
31.2630	118
31.2704	146
31.2778	134
31.2852	152
31.2926	163
31.3000	147
31.3074	138
31.3148	146
31.3222	135
31.3296	152
31.3370	174
31.3444	130
31.3518	169
31.3592	158
31.3666	176
31.3740	211
31.3814	216
31.3888	257
31.3962	274
31.4036	291
31.4109	352
31.4183	336
31.4257	339
31.4331	361
31.4405	368
31.4479	337
31.4553	339
31.4627	368
31.4701	356
31.4775	304
31.4849	319
31.4923	322
31.4997	312
31.5071	301
31.5145	308
31.5219	253
31.5293	289
31.5367	258
31.5441	290
31.5515	247
31.5589	239
31.5662	234
31.5736	238
31.5810	229
31.5884	252
31.5958	247
31.6032	223
31.6106	236
31.6180	206
31.6254	218
31.6328	228
31.6402	194
31.6476	186
31.6550	173
31.6624	184
31.6698	162
31.6772	190
31.6846	168
31.6920	162
31.6994	174
31.7068	184
31.7142	163
31.7215	160
31.7289	133
31.7363	166
31.7437	141
31.7511	120
31.7585	145
31.7659	129
31.7733	138
31.7807	136
31.7881	107
31.7955	114
31.8029	108
31.8103	134
31.8177	140
31.8251	117
31.8325	134
31.8399	112
31.8473	122
31.8547	134
31.8621	155
31.8695	135
31.8769	165
31.8842	141
31.8916	199
31.8990	166
31.9064	209
31.9138	214
31.9212	237
31.9286	200
31.9360	212
31.9434	220
31.9508	235
31.9582	208
31.9656	216
31.9730	224
31.9804	218
31.9878	196
31.9952	221
32.0026	218
32.0100	228
32.0174	208
32.0248	240
32.0322	199
32.0395	185
32.0469	203
32.0543	162
32.0617	160
32.0691	130
32.0765	175
32.0839	162
32.0913	158
32.0987	177
32.1061	145
32.1135	118
32.1209	111
32.1283	129
32.1357	109
32.1431	127
32.1505	109
32.1579	118
32.1653	107
32.1727	117
32.1801	100
32.1875	110
32.1948	112
32.2022	129
32.2096	116
32.2170	111
32.2244	117
32.2318	127
32.2392	114
32.2466	109
32.2540	111
32.2614	120
32.2688	112
32.2762	111
32.2836	107
32.2910	108
32.2984	98
32.3058	95
32.3132	104
32.3206	105
32.3280	101
32.3354	119
32.3428	99
32.3501	86
32.3575	100
32.3649	120
32.3723	83
32.3797	101
32.3871	109
32.3945	109
32.4019	112
32.4093	114
32.4167	91
32.4241	118
32.4315	95
32.4389	108
32.4463	115
32.4537	89
32.4611	112
32.4685	102
32.4759	103
32.4833	114
32.4907	125
32.4981	90
32.5054	107
32.5128	117
32.5202	102
32.5276	103
32.5350	112
32.5424	108
32.5498	97
32.5572	122
32.5646	110
32.5720	107
32.5794	100
32.5868	106
32.5942	93
32.6016	138
32.6090	101
32.6164	86
32.6238	108
32.6312	103
32.6386	90
32.6460	97
32.6534	103
32.6607	116
32.6681	91
32.6755	104
32.6829	102
32.6903	106
32.6977	110
32.7051	100
32.7125	111
32.7199	108
32.7273	111
32.7347	106
32.7421	114
32.7495	79
32.7569	115
32.7643	121
32.7717	119
32.7791	125
32.7865	92
32.7939	96
32.8013	115
32.8087	113
32.8160	114
32.8234	116
32.8308	112
32.8382	97
32.8456	95
32.8530	117
32.8604	115
32.8678	112
32.8752	120
32.8826	121
32.8900	137
32.8974	138
32.9048	142
32.9122	141
32.9196	131
32.9270	122
32.9344	128
32.9418	123
32.9492	129
32.9566	133
32.9640	123
32.9713	129
32.9787	118
32.9861	125
32.9935	114
33.0009	101
33.0083	131
33.0157	120
33.0231	110
33.0305	130
33.0379	103
33.0453	110
33.0527	103
33.0601	111
33.0675	99
33.0749	107
33.0823	135
33.0897	127
33.0971	117
33.1045	115
33.1119	120
33.1193	107
33.1266	135
33.1340	120
33.1414	108
33.1488	106
33.1562	116
33.1636	99
33.1710	121
33.1784	108
33.1858	111
33.1932	99
33.2006	135
33.2080	124
33.2154	116
33.2228	129
33.2302	97
33.2376	118
33.2450	103
33.2524	123
33.2598	111
33.2672	131
33.2746	115
33.2819	85
33.2893	110
33.2967	135
33.3041	122
33.3115	135
33.3189	155
33.3263	120
33.3337	135
33.3411	141
33.3485	148
33.3559	153
33.3633	170
33.3707	139
33.3781	156
33.3855	160
33.3929	169
33.4003	146
33.4077	152
33.4151	173
33.4225	141
33.4299	181
33.4373	168
33.4446	186
33.4520	190
33.4594	160
33.4668	181
33.4742	189
33.4816	195
33.4890	205
33.4964	240
33.5038	270
33.5112	305
33.5186	349
33.5260	372
33.5334	434
33.5408	543
33.5482	546
33.5556	609
33.5630	623
33.5704	619
33.5778	642
33.5852	646
33.5926	680
33.5999	634
33.6073	626
33.6147	678
33.6221	577
33.6295	578
33.6369	578
33.6443	574
33.6517	545
33.6591	518
33.6665	445
33.6739	446
33.6813	404
33.6887	378
33.6961	383
33.7035	322
33.7109	326
33.7183	302
33.7257	256
33.7331	227
33.7405	238
33.7479	223
33.7552	179
33.7626	190
33.7700	160
33.7774	156
33.7848	154
33.7922	152
33.7996	151
33.8070	132
33.8144	138
33.8218	149
33.8292	132
33.8366	141
33.8440	134
33.8514	124
33.8588	119
33.8662	141
33.8736	140
33.8810	146
33.8884	143
33.8958	161
33.9032	146
33.9105	149
33.9179	175
33.9253	167
33.9327	205
33.9401	184
33.9475	171
33.9549	192
33.9623	173
33.9697	192
33.9771	234
33.9845	193
33.9919	230
33.9993	235
34.0067	217
34.0141	215
34.0215	205
34.0289	196
34.0363	250
34.0437	200
34.0511	198
34.0585	177
34.0658	182
34.0732	197
34.0806	198
34.0880	205
34.0954	161
34.1028	194
34.1102	184
34.1176	186
34.1250	184
34.1324	157
34.1398	157
34.1472	160
34.1546	131
34.1620	128
34.1694	147
34.1768	131
34.1842	145
34.1916	133
34.1990	129
34.2064	122
34.2138	133
34.2211	113
34.2285	110
34.2359	131
34.2433	114
34.2507	99
34.2581	98
34.2655	111
34.2729	113
34.2803	97
34.2877	122
34.2951	102
34.3025	105
34.3099	107
34.3173	82
34.3247	123
34.3321	92
34.3395	106
34.3469	102
34.3543	96
34.3617	105
34.3691	95
34.3764	96
34.3838	126
34.3912	126
34.3986	90
34.4060	103
34.4134	112
34.4208	113
34.4282	101
34.4356	110
34.4430	113
34.4504	91
34.4578	96
34.4652	108
34.4726	108
34.4800	101
34.4874	110
34.4948	108
34.5022	96
34.5096	107
34.5170	91
34.5244	115
34.5317	127
34.5391	79
34.5465	117
34.5539	122
34.5613	107
34.5687	102
34.5761	112
34.5835	97
34.5909	88
34.5983	122
34.6057	96
34.6131	104
34.6205	107
34.6279	86
34.6353	105
34.6427	96
34.6501	125
34.6575	104
34.6649	93
34.6723	118
34.6797	94
34.6870	109
34.6944	91
34.7018	107
34.7092	106
34.7166	112
34.7240	95
34.7314	115
34.7388	87
34.7462	99
34.7536	107
34.7610	91
34.7684	117
34.7758	115
34.7832	99
34.7906	109
34.7980	108
34.8054	112
34.8128	109
34.8202	111
34.8276	85
34.8350	99
34.8423	96
34.8497	94
34.8571	114
34.8645	107
34.8719	101
34.8793	91
34.8867	95
34.8941	97
34.9015	123
34.9089	119
34.9163	104
34.9237	111
34.9311	108
34.9385	111
34.9459	118
34.9533	114
34.9607	112
34.9681	132
34.9755	130
34.9829	120
34.9903	131
34.9977	114
35.0050	129
35.0124	131
35.0198	128
35.0272	128
35.0346	135
35.0420	124
35.0494	123
35.0568	118
35.0642	118
35.0716	106
35.0790	121
35.0864	104
35.0938	96
35.1012	151
35.1086	132
35.1160	150
35.1234	145
35.1308	120
35.1382	140
35.1456	152
35.1530	161
35.1603	152
35.1677	187
35.1751	165
35.1825	164
35.1899	203
35.1973	204
35.2047	178
35.2121	181
35.2195	183
35.2269	164
35.2343	175
35.2417	208
35.2491	157
35.2565	165
35.2639	165
35.2713	146
35.2787	159
35.2861	160
35.2935	144
35.3009	138
35.3083	140
35.3156	145
35.3230	129
35.3304	127
35.3378	140
35.3452	114
35.3526	114
35.3600	109
35.3674	118
35.3748	109
35.3822	112
35.3896	113
35.3970	113
35.4044	102
35.4118	101
35.4192	97
35.4266	104
35.4340	110
35.4414	114
35.4488	111
35.4562	139
35.4636	135
35.4709	126
35.4783	125
35.4857	155
35.4931	125
35.5005	139
35.5079	153
35.5153	127
35.5227	143
35.5301	144
35.5375	116
35.5449	145
35.5523	138
35.5597	115
35.5671	119
35.5745	127
35.5819	123
35.5893	135
35.5967	132
35.6041	137
35.6115	125
35.6189	117
35.6262	111
35.6336	129
35.6410	104
35.6484	110
35.6558	104
35.6632	122
35.6706	113
35.6780	101
35.6854	102
35.6928	116
35.7002	102
35.7076	104
35.7150	120
35.7224	116
35.7298	103
35.7372	110
35.7446	103
35.7520	108
35.7594	104
35.7668	106
35.7742	112
35.7815	115
35.7889	115
35.7963	120
35.8037	116
35.8111	112
35.8185	115
35.8259	122
35.8333	110
35.8407	116
35.8481	126
35.8555	127
35.8629	116
35.8703	131
35.8777	134
35.8851	128
35.8925	144
35.8999	127
35.9073	142
35.9147	138
35.9221	130
35.9295	132
35.9368	154
35.9442	140
35.9516	143
35.9590	152
35.9664	146
35.9738	148
35.9812	133
35.9886	148
35.9960	162
36.0034	163
36.0108	155
36.0182	190
36.0256	179
36.0330	207
36.0404	224
36.0478	262
36.0552	285
36.0626	265
36.0700	308
36.0774	302
36.0848	307
36.0921	300
36.0995	321
36.1069	300
36.1143	260
36.1217	286
36.1291	281
36.1365	264
36.1439	291
36.1513	321
36.1587	303
36.1661	315
36.1735	360
36.1809	308
36.1883	344
36.1957	309
36.2031	305
36.2105	299
36.2179	250
36.2253	250
36.2327	244
36.2401	249
36.2474	235
36.2548	230
36.2622	219
36.2696	223
36.2770	203
36.2844	198
36.2918	200
36.2992	190
36.3066	227
36.3140	236
36.3214	206
36.3288	214
36.3362	273
36.3436	242
36.3510	247
36.3584	236
36.3658	251
36.3732	266
36.3806	215
36.3880	201
36.3954	232
36.4027	197
36.4101	186
36.4175	187
36.4249	208
36.4323	152
36.4397	187
36.4471	213
36.4545	171
36.4619	178
36.4693	166
36.4767	153
36.4841	165
36.4915	155
36.4989	130
36.5063	127
36.5137	140
36.5211	117
36.5285	131
36.5359	113
36.5433	113
36.5507	109
36.5580	112
36.5654	134
36.5728	119
36.5802	117
36.5876	117
36.5950	98
36.6024	119
36.6098	105
36.6172	101
36.6246	114
36.6320	92
36.6394	115
36.6468	110
36.6542	120
36.6616	100
36.6690	114
36.6764	117
36.6838	103
36.6912	101
36.6986	113
36.7060	86
36.7134	107
36.7207	108
36.7281	118
36.7355	114
36.7429	97
36.7503	105
36.7577	113
36.7651	91
36.7725	96
36.7799	121
36.7873	114
36.7947	91
36.8021	115
36.8095	121
36.8169	103
36.8243	124
36.8317	118
36.8391	111
36.8465	101
36.8539	109
36.8613	123
36.8687	118
36.8760	87
36.8834	119
36.8908	99
36.8982	99
36.9056	101
36.9130	90
36.9204	108
36.9278	95
36.9352	97
36.9426	122
36.9500	116
36.9574	89
36.9648	110
36.9722	110
36.9796	105
36.9870	93
36.9944	95
37.0018	94
37.0092	113
37.0166	95
37.0240	104
37.0313	93
37.0387	113
37.0461	107
37.0535	111
37.0609	117
37.0683	89
37.0757	113
37.0831	84
37.0905	116
37.0979	117
37.1053	113
37.1127	136
37.1201	117
37.1275	128
37.1349	122
37.1423	130
37.1497	150
37.1571	145
37.1645	158
37.1719	162
37.1793	165
37.1866	160
37.1940	180
37.2014	186
37.2088	167
37.2162	183
37.2236	177
37.2310	182
37.2384	144
37.2458	141
37.2532	145
37.2606	163
37.2680	131
37.2754	135
37.2828	159
37.2902	165
37.2976	143
37.3050	115
37.3124	148
37.3198	149
37.3272	121
37.3346	134
37.3419	129
37.3493	123
37.3567	130
37.3641	117
37.3715	109
37.3789	109
37.3863	111
37.3937	99
37.4011	92
37.4085	97
37.4159	131
37.4233	132
37.4307	100
37.4381	98
37.4455	92
37.4529	118
37.4603	103
37.4677	99
37.4751	99
37.4825	120
37.4899	124
37.4972	106
37.5046	115
37.5120	127
37.5194	126
37.5268	125
37.5342	122
37.5416	132
37.5490	135
37.5564	121
37.5638	115
37.5712	122
37.5786	173
37.5860	125
37.5934	124
37.6008	148
37.6082	173
37.6156	176
37.6230	170
37.6304	179
37.6378	171
37.6452	245
37.6525	216
37.6599	226
37.6673	273
37.6747	269
37.6821	293
37.6895	282
37.6969	260
37.7043	267
37.7117	292
37.7191	283
37.7265	317
37.7339	303
37.7413	257
37.7487	274
37.7561	266
37.7635	260
37.7709	243
37.7783	254
37.7857	264
37.7931	239
37.8005	212
37.8078	214
37.8152	208
37.8226	186
37.8300	171
37.8374	186
37.8448	183
37.8522	173
37.8596	140
37.8670	148
37.8744	144
37.8818	143
37.8892	145
37.8966	146
37.9040	132
37.9114	113
37.9188	106
37.9262	116
37.9336	123
37.9410	116
37.9484	119
37.9558	127
37.9631	127
37.9705	117
37.9779	119
37.9853	119
37.9927	114
38.0001	110
38.0075	115
38.0149	127
38.0223	114
38.0297	102
38.0371	128
38.0445	109
38.0519	107
38.0593	119
38.0667	112
38.0741	120
38.0815	113
38.0889	132
38.0963	130
38.1037	114
38.1111	104
38.1184	110
38.1258	103
38.1332	97
38.1406	136
38.1480	119
38.1554	112
38.1628	117
38.1702	110
38.1776	140
38.1850	117
38.1924	137
38.1998	127
38.2072	146
38.2146	111
38.2220	112
38.2294	111
38.2368	136
38.2442	137
38.2516	130
38.2590	128
38.2664	142
38.2738	175
38.2811	150
38.2885	188
38.2959	208
38.3033	196
38.3107	235
38.3181	250
38.3255	233
38.3329	225
38.3403	244
38.3477	276
38.3551	236
38.3625	245
38.3699	220
38.3773	233
38.3847	236
38.3921	232
38.3995	215
38.4069	222
38.4143	208
38.4217	187
38.4291	237
38.4364	195
38.4438	195
38.4512	231
38.4586	200
38.4660	216
38.4734	221
38.4808	210
38.4882	224
38.4956	222
38.5030	216
38.5104	232
38.5178	237
38.5252	219
38.5326	232
38.5400	201
38.5474	183
38.5548	195
38.5622	182
38.5696	199
38.5770	175
38.5844	188
38.5917	176
38.5991	185
38.6065	162
38.6139	184
38.6213	161
38.6287	181
38.6361	169
38.6435	151
38.6509	161
38.6583	149
38.6657	121
38.6731	151
38.6805	124
38.6879	102
38.6953	123
38.7027	116
38.7101	122
38.7175	119
38.7249	115
38.7323	113
38.7397	98
38.7470	116
38.7544	101
38.7618	112
38.7692	103
38.7766	103
38.7840	105
38.7914	122
38.7988	83
38.8062	112
38.8136	110
38.8210	118
38.8284	103
38.8358	115
38.8432	116
38.8506	103
38.8580	104
38.8654	113
38.8728	103
38.8802	99
38.8876	100
38.8950	96
38.9023	118
38.9097	101
38.9171	116
38.9245	98
38.9319	113
38.9393	107
38.9467	117
38.9541	104
38.9615	105
38.9689	112
38.9763	93
38.9837	101
38.9911	114
38.9985	106
39.0059	98
39.0133	104
39.0207	118
39.0281	118
39.0355	103
39.0429	118
39.0503	125
39.0576	114
39.0650	103
39.0724	111
39.0798	115
39.0872	132
39.0946	142
39.1020	126
39.1094	140
39.1168	135
39.1242	98
39.1316	122
39.1390	141
39.1464	137
39.1538	120
39.1612	122
39.1686	128
39.1760	151
39.1834	160
39.1908	147
39.1982	135
39.2056	138
39.2129	128
39.2203	140
39.2277	160
39.2351	124
39.2425	143
39.2499	152
39.2573	184
39.2647	208
39.2721	178
39.2795	205
39.2869	255
39.2943	250
39.3017	276
39.3091	283
39.3165	272
39.3239	275
39.3313	268
39.3387	256
39.3461	262
39.3535	250
39.3609	219
39.3682	248
39.3756	241
39.3830	224
39.3904	245
39.3978	253
39.4052	283
39.4126	301
39.4200	295
39.4274	283
39.4348	277
39.4422	286
39.4496	315
39.4570	301
39.4644	284
39.4718	252
39.4792	273
39.4866	270
39.4940	228
39.5014	250
39.5088	255
39.5162	258
39.5235	270
39.5309	249
39.5383	229
39.5457	247
39.5531	247
39.5605	223
39.5679	213
39.5753	204
39.5827	188
39.5901	181
39.5975	198
39.6049	191
39.6123	181
39.6197	179
39.6271	177
39.6345	153
39.6419	162
39.6493	164
39.6567	153
39.6641	146
39.6715	144
39.6788	142
39.6862	163
39.6936	149
39.7010	151
39.7084	117
39.7158	134
39.7232	117
39.7306	147
39.7380	132
39.7454	146
39.7528	137
39.7602	119
39.7676	152
39.7750	141
39.7824	147
39.7898	176
39.7972	146
39.8046	166
39.8120	201
39.8194	156
39.8268	185
39.8342	192
39.8415	159
39.8489	191
39.8563	169
39.8637	142
39.8711	132
39.8785	149
39.8859	132
39.8933	167
39.9007	145
39.9081	138
39.9155	149
39.9229	157
39.9303	143
39.9377	143
39.9451	144
39.9525	138
39.9599	145
39.9673	146
39.9747	129
39.9821	112
39.9895	109
39.9968	125
