2.0000	94
2.0074	109
2.0148	99
2.0222	107
2.0296	103
2.0370	103
2.0444	98
2.0518	105
2.0592	94
2.0666	81
2.0740	101
2.0813	118
2.0887	121
2.0961	101
2.1035	104
2.1109	103
2.1183	111
2.1257	98
2.1331	93
2.1405	109
2.1479	87
2.1553	101
2.1627	103
2.1701	112
2.1775	94
2.1849	99
2.1923	97
2.1997	91
2.2071	92
2.2145	102
2.2219	112
2.2293	90
2.2366	96
2.2440	108
2.2514	86
2.2588	106
2.2662	85
2.2736	116
2.2810	110
2.2884	110
2.2958	104
2.3032	91
2.3106	106
2.3180	108
2.3254	86
2.3328	110
2.3402	97
2.3476	107
2.3550	108
2.3624	106
2.3698	117
2.3772	108
2.3846	94
2.3919	80
2.3993	110
2.4067	94
2.4141	79
2.4215	82
2.4289	94
2.4363	104
2.4437	96
2.4511	89
2.4585	101
2.4659	100
2.4733	80
2.4807	100
2.4881	84
2.4955	93
2.5029	92
2.5103	94
2.5177	87
2.5251	85
2.5325	108
2.5399	95
2.5472	101
2.5546	108
2.5620	96
2.5694	89
2.5768	101
2.5842	85
2.5916	91
2.5990	86
2.6064	90
2.6138	87
2.6212	81
2.6286	75
2.6360	85
2.6434	86
2.6508	106
2.6582	84
2.6656	87
2.6730	91
2.6804	85
2.6878	84
2.6952	74
2.7025	81
2.7099	78
2.7173	95
2.7247	91
2.7321	77
2.7395	69
2.7469	68
2.7543	74
2.7617	81
2.7691	81
2.7765	88
2.7839	77
2.7913	93
2.7987	84
2.8061	90
2.8135	87
2.8209	91
2.8283	82
2.8357	79
2.8431	87
2.8505	93
2.8579	68
2.8652	79
2.8726	87
2.8800	67
2.8874	72
2.8948	69
2.9022	70
2.9096	100
2.9170	74
2.9244	75
2.9318	77
2.9392	71
2.9466	86
2.9540	67
2.9614	82
2.9688	62
2.9762	89
2.9836	68
2.9910	73
2.9984	74
3.0058	66
3.0132	72
3.0205	77
3.0279	74
3.0353	64
3.0427	72
3.0501	79
3.0575	72
3.0649	76
3.0723	67
3.0797	89
3.0871	71
3.0945	69
3.1019	72
3.1093	60
3.1167	50
3.1241	50
3.1315	60
3.1389	87
3.1463	77
3.1537	67
3.1611	69
3.1685	80
3.1758	80
3.1832	61
3.1906	69
3.1980	78
3.2054	90
3.2128	64
3.2202	49
3.2276	72
3.2350	61
3.2424	60
3.2498	49
3.2572	64
3.2646	73
3.2720	63
3.2794	76
3.2868	52
3.2942	64
3.3016	57
3.3090	61
3.3164	54
3.3238	76
3.3311	76
3.3385	70
3.3459	63
3.3533	71
3.3607	70
3.3681	57
3.3755	54
3.3829	64
3.3903	66
3.3977	52
3.4051	57
3.4125	67
3.4199	60
3.4273	64
3.4347	62
3.4421	60
3.4495	58
3.4569	54
3.4643	47
3.4717	72
3.4791	60
3.4864	65
3.4938	67
3.5012	53
3.5086	62
3.5160	68
3.5234	73
3.5308	44
3.5382	59
3.5456	66
3.5530	60
3.5604	58
3.5678	66
3.5752	56
3.5826	65
3.5900	58
3.5974	55
3.6048	56
3.6122	52
3.6196	58
3.6270	58
3.6344	53
3.6417	62
3.6491	55
3.6565	61
3.6639	61
3.6713	43
3.6787	56
3.6861	52
3.6935	50
3.7009	46
3.7083	57
3.7157	61
3.7231	58
3.7305	62
3.7379	53
3.7453	59
3.7527	55
3.7601	59
3.7675	58
3.7749	43
3.7823	64
3.7897	50
3.7970	55
3.8044	48
3.8118	53
3.8192	43
3.8266	63
3.8340	47
3.8414	57
3.8488	54
3.8562	56
3.8636	68
3.8710	47
3.8784	56
3.8858	57
3.8932	61
3.9006	52
3.9080	54
3.9154	55
3.9228	56
3.9302	54
3.9376	45
3.9450	50
3.9523	50
3.9597	54
3.9671	56
3.9745	58
3.9819	48
3.9893	46
3.9967	54
4.0041	55
4.0115	50
4.0189	55
4.0263	54
4.0337	50
4.0411	46
4.0485	40
4.0559	43
4.0633	35
4.0707	46
4.0781	60
4.0855	47
4.0929	51
4.1003	52
4.1076	47
4.1150	38
4.1224	46
4.1298	59
4.1372	46
4.1446	39
4.1520	40
4.1594	49
4.1668	51
4.1742	37
4.1816	48
4.1890	44
4.1964	34
4.2038	42
4.2112	40
4.2186	44
4.2260	40
4.2334	47
4.2408	51
4.2482	37
4.2556	56
4.2629	50
4.2703	43
4.2777	46
4.2851	36
4.2925	51
4.2999	49
4.3073	49
4.3147	47
4.3221	46
4.3295	42
4.3369	44
4.3443	63
4.3517	37
4.3591	35
4.3665	45
4.3739	35
4.3813	48
4.3887	37
4.3961	33
4.4035	31
4.4109	46
4.4183	54
4.4256	41
4.4330	39
4.4404	43
4.4478	46
4.4552	54
4.4626	42
4.4700	47
4.4774	47
4.4848	46
4.4922	51
4.4996	43
4.5070	35
4.5144	48
4.5218	37
4.5292	39
4.5366	44
4.5440	43
4.5514	31
4.5588	36
4.5662	34
4.5736	44
4.5809	42
4.5883	37
4.5957	36
4.6031	37
4.6105	38
4.6179	43
4.6253	51
4.6327	45
4.6401	34
4.6475	43
4.6549	41
4.6623	38
4.6697	40
4.6771	42
4.6845	52
4.6919	42
4.6993	48
4.7067	40
4.7141	50
4.7215	38
4.7289	35
4.7362	31
4.7436	51
4.7510	50
4.7584	46
4.7658	32
4.7732	35
4.7806	44
4.7880	36
4.7954	39
4.8028	48
4.8102	36
4.8176	40
4.8250	32
4.8324	38
4.8398	33
4.8472	36
4.8546	36
4.8620	33
4.8694	45
4.8768	49
4.8842	40
4.8915	43
4.8989	46
4.9063	45
4.9137	37
4.9211	41
4.9285	31
4.9359	36
4.9433	49
4.9507	45
4.9581	38
4.9655	35
4.9729	33
4.9803	47
4.9877	41
4.9951	45
5.0025	39
5.0099	30
5.0173	27
5.0247	41
5.0321	45
5.0395	32
5.0468	43
5.0542	27
5.0616	44
5.0690	37
5.0764	25
5.0838	40
5.0912	42
5.0986	38
5.1060	45
5.1134	42
5.1208	41
5.1282	33
5.1356	42
5.1430	29
5.1504	40
5.1578	32
5.1652	30
5.1726	37
5.1800	35
5.1874	35
5.1948	35
5.2021	41
5.2095	35
5.2169	37
5.2243	38
5.2317	37
5.2391	34
5.2465	43
5.2539	46
5.2613	44
5.2687	36
5.2761	32
5.2835	33
5.2909	38
5.2983	40
5.3057	24
5.3131	21
5.3205	35
5.3279	34
5.3353	38
5.3427	35
5.3501	31
5.3574	35
5.3648	33
5.3722	34
5.3796	22
5.3870	38
5.3944	38
5.4018	51
5.4092	36
5.4166	30
5.4240	36
5.4314	51
5.4388	33
5.4462	49
5.4536	38
5.4610	36
5.4684	30
5.4758	40
5.4832	36
5.4906	34
5.4980	36
5.5054	36
5.5127	28
5.5201	33
5.5275	34
5.5349	40
5.5423	29
5.5497	38
5.5571	37
5.5645	31
5.5719	35
5.5793	36
5.5867	34
5.5941	29
5.6015	46
5.6089	37
5.6163	47
5.6237	38
5.6311	39
5.6385	43
5.6459	36
5.6533	32
5.6607	39
5.6680	33
5.6754	36
5.6828	42
5.6902	39
5.6976	32
5.7050	40
5.7124	41
5.7198	32
5.7272	38
5.7346	31
5.7420	27
5.7494	30
5.7568	38
5.7642	45
5.7716	27
5.7790	41
5.7864	27
5.7938	35
5.8012	35
5.8086	30
5.8160	34
5.8233	33
5.8307	29
5.8381	45
5.8455	30
5.8529	15
5.8603	30
5.8677	35
5.8751	52
5.8825	46
5.8899	38
5.8973	44
5.9047	28
5.9121	33
5.9195	40
5.9269	35
5.9343	41
5.9417	31
5.9491	37
5.9565	27
5.9639	34
5.9713	39
5.9786	34
5.9860	32
5.9934	38
6.0008	48
6.0082	35
6.0156	33
6.0230	50
6.0304	39
6.0378	28
6.0452	37
6.0526	28
6.0600	41
6.0674	47
6.0748	37
6.0822	40
6.0896	40
6.0970	39
6.1044	29
6.1118	45
6.1192	32
6.1266	32
6.1340	34
6.1413	39
6.1487	27
6.1561	46
6.1635	37
6.1709	44
6.1783	29
6.1857	29
6.1931	40
6.2005	34
6.2079	35
6.2153	38
6.2227	33
6.2301	32
6.2375	38
6.2449	40
6.2523	43
6.2597	36
6.2671	38
6.2745	42
6.2819	30
6.2893	32
6.2966	30
6.3040	42
6.3114	36
6.3188	39
6.3262	44
6.3336	30
6.3410	30
6.3484	40
6.3558	44
6.3632	37
6.3706	43
6.3780	38
6.3854	26
6.3928	31
6.4002	36
6.4076	33
6.4150	36
6.4224	33
6.4298	30
6.4372	34
6.4446	45
6.4519	38
6.4593	30
6.4667	23
6.4741	33
6.4815	29
6.4889	52
6.4963	42
6.5037	31
6.5111	37
6.5185	41
6.5259	35
6.5333	37
6.5407	41
6.5481	30
6.5555	39
6.5629	31
6.5703	46
6.5777	33
6.5851	34
6.5925	31
6.5999	40
6.6072	36
6.6146	43
6.6220	29
6.6294	30
6.6368	38
6.6442	33
6.6516	42
6.6590	38
6.6664	38
6.6738	29
6.6812	34
6.6886	35
6.6960	32
6.7034	35
6.7108	51
6.7182	42
6.7256	43
6.7330	31
6.7404	40
6.7478	38
6.7552	35
6.7625	41
6.7699	29
6.7773	32
6.7847	28
6.7921	28
6.7995	30
6.8069	31
6.8143	37
6.8217	24
6.8291	39
6.8365	43
6.8439	26
6.8513	44
6.8587	29
6.8661	44
6.8735	37
6.8809	38
6.8883	44
6.8957	39
6.9031	36
6.9105	32
6.9178	36
6.9252	36
6.9326	34
6.9400	24
6.9474	34
6.9548	29
6.9622	28
6.9696	37
6.9770	39
6.9844	38
6.9918	26
6.9992	39
7.0066	46
7.0140	44
7.0214	43
7.0288	39
7.0362	42
7.0436	40
7.0510	37
7.0584	32
7.0658	37
7.0731	31
7.0805	39
7.0879	35
7.0953	39
7.1027	39
7.1101	52
7.1175	39
7.1249	43
7.1323	38
7.1397	44
7.1471	31
7.1545	31
7.1619	35
7.1693	35
7.1767	36
7.1841	34
7.1915	35
7.1989	31
7.2063	39
7.2137	30
7.2211	29
7.2284	27
7.2358	43
7.2432	41
7.2506	31
7.2580	39
7.2654	30
7.2728	36
7.2802	26
7.2876	40
7.2950	42
7.3024	38
7.3098	38
7.3172	27
7.3246	40
7.3320	33
7.3394	34
7.3468	40
7.3542	29
7.3616	32
7.3690	38
7.3764	50
7.3837	31
7.3911	39
7.3985	37
7.4059	34
7.4133	37
7.4207	39
7.4281	44
7.4355	51
7.4429	36
7.4503	38
7.4577	29
7.4651	45
7.4725	45
7.4799	38
7.4873	39
7.4947	39
7.5021	43
7.5095	47
7.5169	39
7.5243	36
7.5317	35
7.5390	29
7.5464	34
7.5538	48
7.5612	42
7.5686	41
7.5760	32
7.5834	33
7.5908	40
7.5982	32
7.6056	31
7.6130	49
7.6204	52
7.6278	36
7.6352	41
7.6426	35
7.6500	44
7.6574	48
7.6648	44
7.6722	49
7.6796	47
7.6870	44
7.6944	82
7.7017	64
7.7091	68
7.7165	64
7.7239	56
7.7313	46
7.7387	55
7.7461	66
7.7535	48
7.7609	52
7.7683	58
7.7757	37
7.7831	44
7.7905	56
7.7979	44
7.8053	52
7.8127	45
7.8201	33
7.8275	48
7.8349	47
7.8423	50
7.8497	51
7.8570	42
7.8644	39
7.8718	49
7.8792	48
7.8866	40
7.8940	46
7.9014	46
7.9088	42
7.9162	43
7.9236	48
7.9310	42
7.9384	34
7.9458	39
7.9532	44
7.9606	49
7.9680	39
7.9754	52
7.9828	42
7.9902	42
7.9976	49
8.0050	49
8.0123	66
8.0197	44
8.0271	42
8.0345	43
8.0419	61
8.0493	53
8.0567	49
8.0641	58
8.0715	50
8.0789	40
8.0863	60
8.0937	46
8.1011	54
8.1085	57
8.1159	47
8.1233	69
8.1307	61
8.1381	61
8.1455	67
8.1529	58
8.1603	77
8.1676	73
8.1750	63
8.1824	70
8.1898	76
8.1972	73
8.2046	93
8.2120	89
8.2194	92
8.2268	96
8.2342	116
8.2416	118
8.2490	139
8.2564	172
8.2638	161
8.2712	166
8.2786	152
8.2860	176
8.2934	179
8.3008	197
8.3082	220
8.3156	227
8.3229	196
8.3303	212
8.3377	226
8.3451	253
8.3525	285
8.3599	277
8.3673	298
8.3747	327
8.3821	364
8.3895	392
8.3969	405
8.4043	460
8.4117	461
8.4191	553
8.4265	584
8.4339	698
8.4413	761
8.4487	879
8.4561	1092
8.4635	1246
8.4709	1571
8.4782	1984
8.4856	2639
8.4930	3556
8.5004	4831
8.5078	6729
8.5152	8697
8.5226	10446
8.5300	11558
8.5374	11663
8.5448	10871
8.5522	9623
8.5596	7665
8.5670	5935
8.5744	4309
8.5818	3148
8.5892	2268
8.5966	1781
8.6040	1242
8.6114	1002
8.6188	710
8.6262	620
8.6335	519
8.6409	377
8.6483	376
8.6557	318
8.6631	253
8.6705	245
8.6779	226
8.6853	221
8.6927	203
8.7001	219
8.7075	191
8.7149	183
8.7223	176
8.7297	156
8.7371	144
8.7445	155
8.7519	141
8.7593	165
8.7667	146
8.7741	157
8.7815	133
8.7888	145
8.7962	165
8.8036	138
8.8110	144
8.8184	121
8.8258	146
8.8332	136
8.8406	116
8.8480	119
8.8554	108
8.8628	114
8.8702	115
8.8776	98
8.8850	95
8.8924	106
8.8998	119
8.9072	101
8.9146	111
8.9220	93
8.9294	87
8.9368	114
8.9441	108
8.9515	128
8.9589	105
8.9663	96
8.9737	103
8.9811	89
8.9885	96
8.9959	111
9.0033	85
9.0107	109
9.0181	85
9.0255	97
9.0329	93
9.0403	91
9.0477	94
9.0551	80
9.0625	103
9.0699	91
9.0773	107
9.0847	82
9.0921	79
9.0994	94
9.1068	94
9.1142	76
9.1216	97
9.1290	74
9.1364	87
9.1438	83
9.1512	78
9.1586	85
9.1660	75
9.1734	79
9.1808	87
9.1882	96
9.1956	93
9.2030	76
9.2104	68
9.2178	88
9.2252	75
9.2326	80
9.2400	76
9.2474	84
9.2548	71
9.2621	79
9.2695	95
9.2769	78
9.2843	75
9.2917	81
9.2991	66
9.3065	68
9.3139	74
9.3213	81
9.3287	81
9.3361	73
9.3435	68
9.3509	75
9.3583	80
9.3657	69
9.3731	74
9.3805	78
9.3879	72
9.3953	60
9.4027	93
9.4101	71
9.4174	73
9.4248	62
9.4322	71
9.4396	81
9.4470	50
9.4544	66
9.4618	80
9.4692	71
9.4766	70
9.4840	72
9.4914	69
9.4988	60
9.5062	61
9.5136	58
9.5210	67
9.5284	64
9.5358	43
9.5432	69
9.5506	58
9.5580	52
9.5654	68
9.5727	68
9.5801	45
9.5875	63
9.5949	61
9.6023	56
9.6097	57
9.6171	68
9.6245	66
9.6319	66
9.6393	69
9.6467	70
9.6541	59
9.6615	68
9.6689	57
9.6763	64
9.6837	63
9.6911	56
9.6985	66
9.7059	70
9.7133	68
9.7207	75
9.7280	81
9.7354	85
9.7428	55
9.7502	71
9.7576	71
9.7650	64
9.7724	55
9.7798	72
9.7872	53
9.7946	53
9.8020	56
9.8094	51
9.8168	60
9.8242	69
9.8316	59
9.8390	66
9.8464	69
9.8538	65
9.8612	77
9.8686	67
9.8760	60
9.8833	62
9.8907	50
9.8981	57
9.9055	58
9.9129	62
9.9203	54
9.9277	60
9.9351	69
9.9425	61
9.9499	51
9.9573	51
9.9647	51
9.9721	53
9.9795	52
9.9869	61
9.9943	60
10.0017	52
10.0091	61
10.0165	48
10.0239	59
10.0313	66
10.0386	56
10.0460	52
10.0534	44
10.0608	57
10.0682	52
10.0756	54
10.0830	39
10.0904	50
10.0978	44
10.1052	60
10.1126	49
10.1200	60
10.1274	65
10.1348	58
10.1422	52
10.1496	57
10.1570	54
10.1644	44
10.1718	57
10.1792	38
10.1866	51
10.1939	53
10.2013	51
10.2087	52
10.2161	51
10.2235	50
10.2309	53
10.2383	44
10.2457	67
10.2531	46
10.2605	52
10.2679	46
10.2753	44
10.2827	39
10.2901	45
10.2975	49
10.3049	49
10.3123	60
10.3197	56
10.3271	42
10.3345	50
10.3419	53
10.3492	54
10.3566	40
10.3640	49
10.3714	51
10.3788	51
10.3862	50
10.3936	45
10.4010	44
10.4084	62
10.4158	50
10.4232	42
10.4306	53
10.4380	55
10.4454	47
10.4528	49
10.4602	42
10.4676	45
10.4750	60
10.4824	43
10.4898	53
10.4972	45
10.5045	48
10.5119	50
10.5193	44
10.5267	29
10.5341	44
10.5415	46
10.5489	38
10.5563	49
10.5637	45
10.5711	43
10.5785	49
10.5859	44
10.5933	63
10.6007	31
10.6081	47
10.6155	43
10.6229	50
10.6303	49
10.6377	53
10.6451	52
10.6525	44
10.6598	40
10.6672	44
10.6746	53
10.6820	38
10.6894	44
10.6968	56
10.7042	55
10.7116	53
10.7190	43
10.7264	47
10.7338	53
10.7412	46
10.7486	46
10.7560	54
10.7634	29
10.7708	32
10.7782	47
10.7856	37
10.7930	50
10.8004	50
10.8078	49
10.8151	47
10.8225	39
10.8299	38
10.8373	44
10.8447	40
10.8521	37
10.8595	50
10.8669	39
10.8743	36
10.8817	40
10.8891	43
10.8965	46
10.9039	52
10.9113	42
10.9187	40
10.9261	37
10.9335	38
10.9409	36
10.9483	49
10.9557	44
10.9631	35
10.9705	30
10.9778	50
10.9852	43
10.9926	39
11.0000	34
11.0074	36
11.0148	45
11.0222	41
11.0296	41
11.0370	32
11.0444	39
11.0518	39
11.0592	36
11.0666	42
11.0740	34
11.0814	32
11.0888	46
11.0962	46
11.1036	46
11.1110	32
11.1184	48
11.1258	58
11.1331	35
11.1405	42
11.1479	42
11.1553	43
11.1627	48
11.1701	49
11.1775	62
11.1849	60
11.1923	37
11.1997	38
11.2071	37
11.2145	41
11.2219	38
11.2293	48
11.2367	39
11.2441	34
11.2515	49
11.2589	40
11.2663	29
11.2737	45
11.2811	49
11.2884	37
11.2958	55
11.3032	40
11.3106	42
11.3180	46
11.3254	51
11.3328	56
11.3402	51
11.3476	41
11.3550	52
11.3624	54
11.3698	42
11.3772	51
11.3846	57
11.3920	48
11.3994	49
11.4068	59
11.4142	52
11.4216	53
11.4290	50
11.4364	63
11.4437	50
11.4511	48
11.4585	52
11.4659	59
11.4733	52
11.4807	50
11.4881	54
11.4955	60
11.5029	58
11.5103	54
11.5177	61
11.5251	80
11.5325	85
11.5399	82
11.5473	79
11.5547	72
11.5621	92
11.5695	93
11.5769	89
11.5843	99
11.5917	106
11.5990	117
11.6064	157
11.6138	134
11.6212	163
11.6286	216
11.6360	198
11.6434	217
11.6508	265
11.6582	322
11.6656	401
11.6730	520
11.6804	671
11.6878	815
11.6952	1007
11.7026	1270
11.7100	1428
11.7174	1572
11.7248	1558
11.7322	1506
11.7396	1483
11.7470	1336
11.7543	1084
11.7617	987
11.7691	774
11.7765	602
11.7839	538
11.7913	420
11.7987	346
11.8061	272
11.8135	248
11.8209	215
11.8283	180
11.8357	160
11.8431	125
11.8505	115
11.8579	95
11.8653	106
11.8727	86
11.8801	65
11.8875	68
11.8949	62
11.9023	67
11.9096	62
11.9170	58
11.9244	83
11.9318	57
11.9392	83
11.9466	81
11.9540	68
11.9614	80
11.9688	86
11.9762	83
11.9836	69
11.9910	79
11.9984	79
12.0058	91
12.0132	82
12.0206	72
12.0280	73
12.0354	62
12.0428	58
12.0502	69
12.0576	59
12.0649	85
12.0723	75
12.0797	64
12.0871	94
12.0945	85
12.1019	76
12.1093	83
12.1167	73
12.1241	101
12.1315	83
12.1389	78
12.1463	111
12.1537	84
12.1611	95
12.1685	69
12.1759	92
12.1833	93
12.1907	107
12.1981	112
12.2055	103
12.2129	123
12.2202	114
12.2276	128
12.2350	126
12.2424	145
12.2498	174
12.2572	166
12.2646	211
12.2720	243
12.2794	261
12.2868	333
12.2942	399
12.3016	489
12.3090	592
12.3164	771
12.3238	959
12.3312	1339
12.3386	1803
12.3460	2324
12.3534	2925
12.3608	3143
12.3682	3301
12.3755	3199
12.3829	3073
12.3903	2743
12.3977	2523
12.4051	2141
12.4125	1752
12.4199	1379
12.4273	1053
12.4347	957
12.4421	798
12.4495	593
12.4569	513
12.4643	389
12.4717	354
12.4791	279
12.4865	246
12.4939	176
12.5013	180
12.5087	150
12.5161	114
12.5235	124
12.5309	123
12.5382	114
12.5456	107
12.5530	90
12.5604	92
12.5678	85
12.5752	101
12.5826	66
12.5900	78
12.5974	79
12.6048	69
12.6122	78
12.6196	70
12.6270	82
12.6344	71
12.6418	81
12.6492	90
12.6566	71
12.6640	74
12.6714	86
12.6788	67
12.6862	66
12.6935	70
12.7009	70
12.7083	63
12.7157	66
12.7231	58
12.7305	63
12.7379	56
12.7453	80
12.7527	61
12.7601	62
12.7675	63
12.7749	61
12.7823	53
12.7897	74
12.7971	66
12.8045	77
12.8119	41
12.8193	70
12.8267	67
12.8341	80
12.8415	83
12.8488	59
12.8562	74
12.8636	88
12.8710	68
12.8784	71
12.8858	62
12.8932	71
12.9006	72
12.9080	54
12.9154	62
12.9228	62
12.9302	78
12.9376	64
12.9450	58
12.9524	79
12.9598	75
12.9672	65
12.9746	69
12.9820	71
12.9894	77
12.9968	64
13.0041	63
13.0115	75
13.0189	65
13.0263	74
13.0337	74
13.0411	72
13.0485	61
13.0559	90
13.0633	75
13.0707	83
13.0781	103
13.0855	94
13.0929	88
13.1003	104
13.1077	97
13.1151	102
13.1225	114
13.1299	104
13.1373	125
13.1447	157
13.1521	174
13.1594	196
13.1668	214
13.1742	262
13.1816	324
13.1890	363
13.1964	459
13.2038	516
13.2112	670
13.2186	886
13.2260	1121
13.2334	1262
13.2408	1344
13.2482	1451
13.2556	1367
13.2630	1305
13.2704	1286
13.2778	1173
13.2852	1031
13.2926	914
13.3000	725
13.3074	667
13.3147	507
13.3221	466
13.3295	385
13.3369	352
13.3443	288
13.3517	240
13.3591	204
13.3665	178
13.3739	133
13.3813	134
13.3887	133
13.3961	102
13.4035	107
13.4109	91
13.4183	94
13.4257	91
13.4331	111
13.4405	91
13.4479	88
13.4553	83
13.4627	84
13.4700	86
13.4774	93
13.4848	104
13.4922	101
13.4996	100
13.5070	109
13.5144	102
13.5218	106
13.5292	144
13.5366	131
13.5440	118
13.5514	166
13.5588	140
13.5662	190
13.5736	196
13.5810	208
13.5884	246
13.5958	225
13.6032	275
13.6106	331
13.6180	427
13.6253	508
13.6327	558
13.6401	692
13.6475	878
13.6549	1104
13.6623	1290
13.6697	1474
13.6771	1658
13.6845	1803
13.6919	1716
13.6993	1786
13.7067	1753
13.7141	1583
13.7215	1545
13.7289	1371
13.7363	1200
13.7437	1106
13.7511	913
13.7585	796
13.7659	653
13.7733	575
13.7806	492
13.7880	381
13.7954	324
13.8028	268
13.8102	225
13.8176	178
13.8250	154
13.8324	129
13.8398	123
13.8472	126
13.8546	124
13.8620	105
13.8694	91
13.8768	97
13.8842	92
13.8916	92
13.8990	82
13.9064	75
13.9138	77
13.9212	90
13.9286	76
13.9359	70
13.9433	56
13.9507	76
13.9581	73
13.9655	67
13.9729	63
13.9803	69
13.9877	61
13.9951	84
14.0025	66
14.0099	73
14.0173	62
14.0247	77
14.0321	74
14.0395	63
14.0469	66
14.0543	50
14.0617	69
14.0691	70
14.0765	70
14.0839	55
14.0913	65
14.0986	57
14.1060	60
14.1134	58
14.1208	65
14.1282	72
14.1356	64
14.1430	59
14.1504	68
14.1578	70
14.1652	76
14.1726	58
14.1800	61
14.1874	80
14.1948	62
14.2022	59
14.2096	60
14.2170	62
14.2244	64
14.2318	59
14.2392	56
14.2466	66
14.2539	59
14.2613	60
14.2687	55
14.2761	72
14.2835	66
14.2909	68
14.2983	65
14.3057	66
14.3131	71
14.3205	70
14.3279	74
14.3353	79
14.3427	91
14.3501	79
14.3575	86
14.3649	108
14.3723	113
14.3797	110
14.3871	150
14.3945	167
14.4019	186
14.4092	173
14.4166	172
14.4240	177
14.4314	180
14.4388	188
14.4462	188
14.4536	169
14.4610	167
14.4684	140
14.4758	121
14.4832	121
14.4906	114
14.4980	96
14.5054	90
14.5128	92
14.5202	62
14.5276	68
14.5350	60
14.5424	64
14.5498	74
14.5572	60
14.5645	68
14.5719	57
14.5793	61
14.5867	59
14.5941	48
14.6015	52
14.6089	72
14.6163	60
14.6237	59
14.6311	56
14.6385	48
14.6459	48
14.6533	62
14.6607	52
14.6681	63
14.6755	44
14.6829	61
14.6903	62
14.6977	56
14.7051	62
14.7125	53
14.7198	40
14.7272	45
14.7346	56
14.7420	61
14.7494	66
14.7568	53
14.7642	51
14.7716	59
14.7790	37
14.7864	55
14.7938	54
14.8012	59
14.8086	49
14.8160	60
14.8234	50
14.8308	60
14.8382	56
14.8456	57
14.8530	57
14.8604	67
14.8678	63
14.8751	46
14.8825	58
14.8899	68
14.8973	65
14.9047	54
14.9121	69
14.9195	65
14.9269	60
14.9343	62
14.9417	50
14.9491	55
14.9565	42
14.9639	63
14.9713	38
14.9787	53
14.9861	60
14.9935	44
15.0009	55
15.0083	64
15.0157	55
15.0231	68
15.0304	48
15.0378	60
15.0452	47
15.0526	63
15.0600	49
15.0674	60
15.0748	68
15.0822	68
15.0896	42
15.0970	58
15.1044	47
15.1118	47
15.1192	49
15.1266	44
15.1340	48
15.1414	63
15.1488	51
15.1562	68
15.1636	53
15.1710	60
15.1784	53
15.1857	56
15.1931	49
15.2005	56
15.2079	55
15.2153	52
15.2227	58
15.2301	61
15.2375	58
15.2449	56
15.2523	67
15.2597	54
15.2671	63
15.2745	57
15.2819	68
15.2893	49
15.2967	45
15.3041	58
15.3115	57
15.3189	46
15.3263	45
15.3337	49
15.3410	57
15.3484	68
15.3558	66
15.3632	62
15.3706	62
15.3780	69
15.3854	48
15.3928	47
15.4002	45
15.4076	54
15.4150	66
15.4224	49
15.4298	57
15.4372	56
15.4446	47
15.4520	68
15.4594	57
15.4668	55
15.4742	64
15.4816	51
15.4890	56
15.4963	70
15.5037	60
15.5111	72
15.5185	66
15.5259	87
15.5333	74
15.5407	99
15.5481	102
15.5555	112
15.5629	107
15.5703	102
15.5777	126
15.5851	126
15.5925	115
15.5999	122
15.6073	106
15.6147	95
15.6221	110
15.6295	88
15.6369	86
15.6443	87
15.6516	93
15.6590	95
15.6664	96
15.6738	58
15.6812	50
15.6886	55
15.6960	49
15.7034	59
15.7108	70
15.7182	65
15.7256	45
15.7330	54
15.7404	43
15.7478	56
15.7552	55
15.7626	51
15.7700	45
15.7774	45
15.7848	48
15.7922	49
15.7996	55
15.8070	45
15.8143	43
15.8217	43
15.8291	52
15.8365	56
15.8439	54
15.8513	51
15.8587	49
15.8661	51
15.8735	50
15.8809	48
15.8883	41
15.8957	40
15.9031	55
15.9105	53
15.9179	61
15.9253	47
15.9327	47
15.9401	50
15.9475	54
15.9549	44
15.9623	57
15.9696	49
15.9770	65
15.9844	41
15.9918	50
15.9992	47
16.0066	50
16.0140	47
16.0214	54
16.0288	61
16.0362	39
16.0436	60
16.0510	64
16.0584	55
16.0658	53
16.0732	47
16.0806	50
16.0880	58
16.0954	57
16.1028	51
16.1102	51
16.1176	63
16.1249	49
16.1323	31
16.1397	37
16.1471	65
16.1545	62
16.1619	54
16.1693	57
16.1767	55
16.1841	34
16.1915	61
16.1989	56
16.2063	50
16.2137	47
16.2211	43
16.2285	51
16.2359	52
16.2433	51
16.2507	52
16.2581	43
16.2655	56
16.2729	51
16.2802	62
16.2876	62
16.2950	54
16.3024	56
16.3098	65
16.3172	54
16.3246	55
16.3320	42
16.3394	51
16.3468	67
16.3542	54
16.3616	53
16.3690	53
16.3764	36
16.3838	63
16.3912	60
16.3986	55
16.4060	67
16.4134	63
16.4208	58
16.4282	53
16.4355	59
16.4429	58
16.4503	54
16.4577	71
16.4651	70
16.4725	77
16.4799	74
16.4873	60
16.4947	83
16.5021	80
16.5095	80
16.5169	80
16.5243	51
16.5317	67
16.5391	81
16.5465	81
16.5539	75
16.5613	66
16.5687	72
16.5761	58
16.5835	72
16.5908	71
16.5982	84
16.6056	72
16.6130	72
16.6204	80
16.6278	70
16.6352	80
16.6426	58
16.6500	76
16.6574	93
16.6648	83
16.6722	63
16.6796	88
16.6870	96
16.6944	89
16.7018	99
16.7092	102
16.7166	100
16.7240	112
16.7314	109
16.7388	121
16.7461	138
16.7535	158
16.7609	177
16.7683	190
16.7757	239
16.7831	290
16.7905	297
16.7979	366
16.8053	421
16.8127	508
16.8201	569
16.8275	644
16.8349	741
16.8423	714
16.8497	744
16.8571	805
16.8645	809
16.8719	737
16.8793	728
16.8867	735
16.8941	634
16.9014	671
16.9088	571
16.9162	512
16.9236	454
16.9310	423
16.9384	381
16.9458	413
16.9532	338
16.9606	387
16.9680	437
16.9754	478
16.9828	554
16.9902	751
16.9976	1017
17.0050	1340
17.0124	1742
17.0198	2165
17.0272	2309
17.0346	2365
17.0420	2057
17.0494	1978
17.0567	1894
17.0641	1805
17.0715	1703
17.0789	1483
17.0863	1219
17.0937	1035
17.1011	796
17.1085	637
17.1159	507
17.1233	435
17.1307	367
17.1381	306
17.1455	293
17.1529	219
17.1603	196
17.1677	161
17.1751	153
17.1825	148
17.1899	135
17.1973	126
17.2047	115
17.2120	106
17.2194	111
17.2268	118
17.2342	87
17.2416	106
17.2490	82
17.2564	87
17.2638	95
17.2712	91
17.2786	93
17.2860	86
17.2934	77
17.3008	69
17.3082	97
17.3156	74
17.3230	88
17.3304	74
17.3378	79
17.3452	78
17.3526	88
17.3600	77
17.3674	77
17.3747	79
17.3821	80
17.3895	79
17.3969	72
17.4043	89
17.4117	75
17.4191	87
17.4265	76
17.4339	57
17.4413	80
17.4487	94
17.4561	74
17.4635	72
17.4709	67
17.4783	80
17.4857	70
17.4931	66
17.5005	65
17.5079	63
17.5153	71
17.5227	76
17.5300	76
17.5374	71
17.5448	88
17.5522	57
17.5596	57
17.5670	68
17.5744	71
17.5818	65
17.5892	78
17.5966	80
17.6040	70
17.6114	64
17.6188	83
17.6262	72
17.6336	85
17.6410	75
17.6484	89
17.6558	75
17.6632	80
17.6706	82
17.6780	82
17.6853	94
17.6927	92
17.7001	94
17.7075	93
17.7149	108
17.7223	98
17.7297	103
17.7371	119
17.7445	145
17.7519	156
17.7593	176
17.7667	185
17.7741	245
17.7815	252
17.7889	329
17.7963	360
17.8037	413
17.8111	495
17.8185	551
17.8259	578
17.8333	702
17.8406	758
17.8480	774
17.8554	838
17.8628	873
17.8702	850
17.8776	855
17.8850	828
17.8924	803
17.8998	738
17.9072	774
17.9146	631
17.9220	633
17.9294	535
17.9368	448
17.9442	389
17.9516	363
17.9590	319
17.9664	261
17.9738	246
17.9812	181
17.9886	187
17.9959	145
18.0033	156
18.0107	130
18.0181	120
18.0255	128
18.0329	122
18.0403	93
18.0477	114
18.0551	79
18.0625	102
18.0699	81
18.0773	82
18.0847	76
18.0921	93
18.0995	89
18.1069	72
18.1143	79
18.1217	100
18.1291	78
18.1365	90
18.1439	91
18.1512	81
18.1586	87
18.1660	88
18.1734	86
18.1808	90
18.1882	83
18.1956	74
18.2030	78
18.2104	87
18.2178	85
18.2252	85
18.2326	87
18.2400	70
18.2474	102
18.2548	92
18.2622	78
18.2696	102
18.2770	89
18.2844	75
18.2918	82
18.2992	85
18.3065	90
18.3139	106
18.3213	92
18.3287	89
18.3361	84
18.3435	82
18.3509	86
18.3583	103
18.3657	78
18.3731	105
18.3805	92
18.3879	88
18.3953	96
18.4027	89
18.4101	114
18.4175	88
18.4249	91
18.4323	105
18.4397	96
18.4471	89
18.4545	131
18.4618	129
18.4692	152
18.4766	174
18.4840	188
18.4914	187
18.4988	199
18.5062	262
18.5136	317
18.5210	373
18.5284	506
18.5358	578
18.5432	753
18.5506	792
18.5580	935
18.5654	1079
18.5728	1184
18.5802	1256
18.5876	1345
18.5950	1409
18.6024	1439
18.6098	1487
18.6171	1470
18.6245	1539
18.6319	1490
18.6393	1416
18.6467	1304
18.6541	1166
18.6615	1062
18.6689	925
18.6763	893
18.6837	741
18.6911	650
18.6985	577
18.7059	505
18.7133	452
18.7207	364
18.7281	307
18.7355	257
18.7429	200
18.7503	190
18.7577	183
18.7651	185
18.7724	137
18.7798	132
18.7872	122
18.7946	103
18.8020	106
18.8094	101
18.8168	111
18.8242	110
18.8316	80
18.8390	98
18.8464	89
18.8538	91
18.8612	104
18.8686	71
18.8760	83
18.8834	84
18.8908	90
18.8982	91
18.9056	87
18.9130	95
18.9204	77
18.9278	77
18.9351	87
18.9425	72
18.9499	88
18.9573	75
18.9647	76
18.9721	75
18.9795	78
18.9869	65
18.9943	75
19.0017	80
19.0091	64
19.0165	82
19.0239	66
19.0313	78
19.0387	73
19.0461	81
19.0535	83
19.0609	68
19.0683	66
19.0757	70
19.0831	68
19.0904	80
19.0978	60
19.1052	72
19.1126	79
19.1200	83
19.1274	67
19.1348	69
19.1422	71
19.1496	69
19.1570	72
19.1644	91
19.1718	88
19.1792	65
19.1866	86
19.1940	97
19.2014	86
19.2088	98
19.2162	106
19.2236	87
19.2310	87
19.2384	74
19.2457	85
19.2531	67
19.2605	59
19.2679	71
19.2753	74
19.2827	61
19.2901	75
19.2975	72
19.3049	82
19.3123	69
19.3197	71
19.3271	69
19.3345	73
19.3419	81
19.3493	85
19.3567	75
19.3641	75
19.3715	77
19.3789	88
19.3863	85
19.3937	105
19.4010	99
19.4084	108
19.4158	125
19.4232	144
19.4306	149
19.4380	194
19.4454	194
19.4528	202
19.4602	239
19.4676	224
19.4750	240
19.4824	242
19.4898	227
19.4972	216
19.5046	222
19.5120	218
19.5194	199
19.5268	186
19.5342	161
19.5416	171
19.5490	122
19.5563	126
19.5637	136
19.5711	104
19.5785	107
19.5859	103
19.5933	86
19.6007	97
19.6081	103
19.6155	83
19.6229	75
19.6303	78
19.6377	81
19.6451	67
19.6525	96
19.6599	69
19.6673	74
19.6747	51
19.6821	81
19.6895	69
19.6969	68
19.7043	67
19.7116	72
19.7190	74
19.7264	65
19.7338	87
19.7412	63
19.7486	76
19.7560	78
19.7634	69
19.7708	80
19.7782	75
19.7856	63
19.7930	57
19.8004	82
19.8078	87
19.8152	91
19.8226	86
19.8300	78
19.8374	87
19.8448	80
19.8522	95
19.8596	92
19.8669	95
19.8743	85
19.8817	89
19.8891	79
19.8965	87
19.9039	88
19.9113	91
19.9187	66
19.9261	84
19.9335	82
19.9409	67
19.9483	70
19.9557	68
19.9631	82
19.9705	65
19.9779	72
19.9853	83
19.9927	59
20.0001	91
20.0075	81
20.0149	74
20.0222	73
20.0296	77
20.0370	78
20.0444	79
20.0518	67
20.0592	83
20.0666	92
20.0740	59
20.0814	88
20.0888	93
20.0962	88
20.1036	85
20.1110	85
20.1184	68
20.1258	98
20.1332	96
20.1406	89
20.1480	64
20.1554	82
20.1628	79
20.1702	93
20.1775	57
20.1849	72
20.1923	76
20.1997	105
20.2071	79
20.2145	82
20.2219	66
20.2293	76
20.2367	72
20.2441	93
20.2515	88
20.2589	83
20.2663	81
20.2737	83
20.2811	88
20.2885	105
20.2959	77
20.3033	103
20.3107	89
20.3181	88
20.3255	95
20.3328	82
20.3402	91
20.3476	90
20.3550	89
20.3624	96
20.3698	104
20.3772	93
20.3846	103
20.3920	125
20.3994	115
20.4068	122
20.4142	132
20.4216	126
20.4290	141
20.4364	148
20.4438	189
20.4512	186
20.4586	249
20.4660	307
20.4734	307
20.4808	392
20.4882	492
20.4955	609
20.5029	714
20.5103	880
20.5177	1021
20.5251	1155
20.5325	1141
20.5399	1184
20.5473	1197
20.5547	1198
20.5621	1163
20.5695	1192
20.5769	1099
20.5843	987
20.5917	996
20.5991	874
20.6065	843
20.6139	744
20.6213	602
20.6287	550
20.6361	492
20.6435	415
20.6508	361
20.6582	271
20.6656	284
20.6730	237
20.6804	223
20.6878	164
20.6952	159
20.7026	141
20.7100	152
20.7174	142
20.7248	123
20.7322	116
20.7396	97
20.7470	128
20.7544	100
20.7618	116
20.7692	91
20.7766	117
20.7840	91
20.7914	92
20.7988	107
20.8061	80
20.8135	89
20.8209	113
20.8283	97
20.8357	114
20.8431	106
20.8505	100
20.8579	132
20.8653	99
20.8727	137
20.8801	116
20.8875	138
20.8949	146
20.9023	155
20.9097	178
20.9171	186
20.9245	207
20.9319	241
20.9393	262
20.9467	285
20.9541	347
20.9614	334
20.9688	376
20.9762	364
20.9836	436
20.9910	427
20.9984	424
21.0058	388
21.0132	342
21.0206	317
21.0280	327
21.0354	306
21.0428	266
21.0502	277
21.0576	246
21.0650	210
21.0724	208
21.0798	137
21.0872	158
21.0946	150
21.1020	144
21.1094	135
21.1167	123
21.1241	118
21.1315	104
21.1389	99
21.1463	113
21.1537	101
21.1611	103
21.1685	112
21.1759	92
21.1833	107
21.1907	110
21.1981	98
21.2055	118
21.2129	102
21.2203	120
21.2277	122
21.2351	118
21.2425	128
21.2499	110
21.2573	105
21.2647	112
21.2720	121
21.2794	134
21.2868	106
21.2942	125
21.3016	117
21.3090	122
21.3164	125
21.3238	115
21.3312	141
21.3386	128
21.3460	114
21.3534	122
21.3608	134
21.3682	144
21.3756	146
21.3830	149
21.3904	140
21.3978	175
21.4052	164
21.4126	200
21.4200	208
21.4273	227
21.4347	225
21.4421	265
21.4495	297
21.4569	325
21.4643	459
21.4717	530
21.4791	673
21.4865	833
21.4939	1004
21.5013	1266
21.5087	1332
21.5161	1388
21.5235	1338
21.5309	1229
21.5383	1168
21.5457	1105
21.5531	1086
21.5605	1057
21.5679	1041
21.5753	945
21.5826	830
21.5900	752
21.5974	648
21.6048	565
21.6122	476
21.6196	458
21.6270	404
21.6344	420
21.6418	351
21.6492	311
21.6566	334
21.6640	314
21.6714	295
21.6788	356
21.6862	342
21.6936	406
21.7010	386
21.7084	399
21.7158	429
21.7232	432
21.7306	441
21.7379	481
21.7453	420
21.7527	473
21.7601	478
21.7675	466
21.7749	442
21.7823	459
21.7897	432
21.7971	361
21.8045	414
21.8119	359
21.8193	365
21.8267	376
21.8341	355
21.8415	346
21.8489	428
21.8563	426
21.8637	418
21.8711	466
21.8785	492
21.8859	544
21.8932	673
21.9006	783
21.9080	983
21.9154	1175
21.9228	1470
21.9302	1991
21.9376	2499
21.9450	3033
21.9524	3567
21.9598	4078
21.9672	4411
21.9746	4734
21.9820	4589
21.9894	4489
21.9968	4371
22.0042	4416
22.0116	4301
22.0190	4232
22.0264	3761
22.0338	3553
22.0412	3210
22.0485	2977
22.0559	2546
22.0633	2182
22.0707	1969
22.0781	1643
22.0855	1335
22.0929	1175
22.1003	1011
22.1077	859
22.1151	714
22.1225	600
22.1299	549
22.1373	441
22.1447	402
22.1521	319
22.1595	321
22.1669	277
22.1743	251
22.1817	229
22.1891	205
22.1965	202
22.2039	164
22.2112	184
22.2186	189
22.2260	192
22.2334	173
22.2408	151
22.2482	171
22.2556	160
22.2630	151
22.2704	130
22.2778	144
22.2852	137
22.2926	153
22.3000	163
22.3074	141
22.3148	148
22.3222	135
22.3296	134
22.3370	139
22.3444	135
22.3518	133
22.3592	128
22.3665	135
22.3739	120
22.3813	146
22.3887	128
22.3961	123
22.4035	128
22.4109	127
22.4183	124
22.4257	119
22.4331	113
22.4405	130
22.4479	117
22.4553	118
22.4627	119
22.4701	143
22.4775	140
22.4849	114
22.4923	139
22.4997	130
22.5071	114
22.5145	113
22.5218	92
22.5292	131
22.5366	109
22.5440	107
22.5514	124
22.5588	127
22.5662	109
22.5736	112
22.5810	129
22.5884	133
22.5958	127
22.6032	100
22.6106	120
22.6180	129
22.6254	114
22.6328	113
22.6402	120
22.6476	126
22.6550	134
22.6624	116
22.6698	132
22.6771	137
22.6845	127
22.6919	142
22.6993	195
22.7067	182
22.7141	185
22.7215	231
22.7289	284
22.7363	356
22.7437	361
22.7511	470
22.7585	435
22.7659	510
22.7733	522
22.7807	507
22.7881	518
22.7955	508
22.8029	452
22.8103	434
22.8177	455
22.8251	461
22.8324	385
22.8398	382
22.8472	383
22.8546	333
22.8620	289
22.8694	282
22.8768	231
22.8842	180
22.8916	193
22.8990	191
22.9064	186
22.9138	173
22.9212	140
22.9286	166
22.9360	134
22.9434	131
22.9508	134
22.9582	114
22.9656	128
22.9730	122
22.9804	112
22.9877	119
22.9951	123
23.0025	126
23.0099	124
23.0173	101
23.0247	120
23.0321	115
23.0395	113
23.0469	106
23.0543	110
23.0617	102
23.0691	113
23.0765	101
23.0839	99
23.0913	110
23.0987	102
23.1061	112
23.1135	93
23.1209	114
23.1283	105
23.1357	90
23.1430	83
23.1504	106
23.1578	107
23.1652	92
23.1726	106
23.1800	95
23.1874	109
23.1948	113
23.2022	95
23.2096	108
23.2170	101
23.2244	103
23.2318	92
23.2392	76
23.2466	104
23.2540	113
23.2614	111
23.2688	85
23.2762	100
23.2836	116
23.2910	88
23.2983	112
23.3057	89
23.3131	113
23.3205	114
23.3279	113
23.3353	105
23.3427	103
23.3501	117
23.3575	112
23.3649	110
23.3723	106
23.3797	112
23.3871	143
23.3945	121
23.4019	112
23.4093	152
23.4167	139
23.4241	162
23.4315	215
23.4389	227
23.4463	290
23.4536	337
23.4610	410
23.4684	424
23.4758	512
23.4832	497
23.4906	494
23.4980	499
23.5054	436
23.5128	433
23.5202	442
23.5276	411
23.5350	387
23.5424	395
23.5498	365
23.5572	350
23.5646	266
23.5720	258
23.5794	235
23.5868	194
23.5942	222
23.6016	169
23.6089	150
23.6163	167
23.6237	127
23.6311	132
23.6385	150
23.6459	125
23.6533	139
23.6607	123
23.6681	129
23.6755	116
23.6829	112
23.6903	118
23.6977	134
23.7051	107
23.7125	108
23.7199	128
23.7273	104
23.7347	109
23.7421	97
23.7495	109
23.7569	96
23.7643	94
23.7716	121
23.7790	131
23.7864	114
23.7938	109
23.8012	113
23.8086	114
23.8160	103
23.8234	126
23.8308	116
23.8382	120
23.8456	114
23.8530	121
23.8604	138
23.8678	130
23.8752	131
23.8826	144
23.8900	149
23.8974	157
23.9048	142
23.9122	160
23.9196	205
23.9269	220
23.9343	235
23.9417	303
23.9491	337
23.9565	423
23.9639	471
23.9713	554
23.9787	614
23.9861	701
23.9935	750
24.0009	780
24.0083	870
24.0157	807
24.0231	830
24.0305	806
24.0379	839
24.0453	819
24.0527	761
24.0601	767
24.0675	691
24.0749	613
24.0822	577
24.0896	497
24.0970	523
24.1044	409
24.1118	383
24.1192	342
24.1266	309
24.1340	272
24.1414	240
24.1488	236
24.1562	205
24.1636	188
24.1710	180
24.1784	172
24.1858	163
24.1932	122
24.2006	131
24.2080	139
24.2154	149
24.2228	130
24.2302	159
24.2375	130
24.2449	180
24.2523	176
24.2597	193
24.2671	214
24.2745	251
24.2819	289
24.2893	292
24.2967	308
24.3041	280
24.3115	271
24.3189	278
24.3263	296
24.3337	295
24.3411	317
24.3485	358
24.3559	388
24.3633	401
24.3707	388
24.3781	461
24.3855	520
24.3928	543
24.4002	628
24.4076	643
24.4150	625
24.4224	673
24.4298	585
24.4372	640
24.4446	592
24.4520	570
24.4594	566
24.4668	533
24.4742	459
24.4816	468
24.4890	400
24.4964	358
24.5038	354
24.5112	303
24.5186	257
24.5260	275
24.5334	261
24.5408	183
24.5481	175
24.5555	178
24.5629	154
24.5703	151
24.5777	149
24.5851	128
24.5925	111
24.5999	141
24.6073	102
24.6147	117
24.6221	139
24.6295	110
24.6369	99
24.6443	99
24.6517	105
24.6591	117
24.6665	114
24.6739	115
24.6813	111
24.6887	123
24.6961	128
24.7034	101
24.7108	139
24.7182	144
24.7256	128
24.7330	160
24.7404	165
24.7478	181
24.7552	161
24.7626	220
24.7700	212
24.7774	271
24.7848	300
24.7922	316
24.7996	316
24.8070	306
24.8144	288
24.8218	281
24.8292	302
24.8366	242
24.8440	244
24.8514	264
24.8587	261
24.8661	244
24.8735	231
24.8809	189
24.8883	189
24.8957	171
24.9031	157
24.9105	163
24.9179	140
24.9253	132
24.9327	137
24.9401	133
24.9475	105
24.9549	120
24.9623	105
24.9697	109
24.9771	128
24.9845	109
24.9919	116
24.9993	90
25.0067	113
25.0140	124
25.0214	123
25.0288	91
25.0362	115
25.0436	97
25.0510	106
25.0584	103
25.0658	121
25.0732	118
25.0806	110
25.0880	107
25.0954	109
25.1028	103
25.1102	108
25.1176	107
25.1250	107
25.1324	115
25.1398	116
25.1472	106
25.1546	88
25.1620	91
25.1693	108
25.1767	97
25.1841	103
25.1915	110
25.1989	124
25.2063	112
25.2137	122
25.2211	124
25.2285	127
25.2359	102
25.2433	124
25.2507	104
25.2581	124
25.2655	83
25.2729	109
25.2803	120
25.2877	125
25.2951	140
25.3025	124
25.3099	121
25.3173	141
25.3247	128
25.3320	130
25.3394	124
25.3468	138
25.3542	121
25.3616	142
25.3690	137
25.3764	157
25.3838	152
25.3912	177
25.3986	189
25.4060	213
25.4134	207
25.4208	220
25.4282	279
25.4356	292
25.4430	372
25.4504	366
25.4578	466
25.4652	567
25.4726	676
25.4800	731
25.4873	819
25.4947	867
25.5021	928
25.5095	853
25.5169	809
25.5243	790
25.5317	814
25.5391	894
25.5465	865
25.5539	830
25.5613	843
25.5687	870
25.5761	914
25.5835	934
25.5909	987
25.5983	1116
25.6057	1289
25.6131	1373
25.6205	1423
25.6279	1438
25.6353	1312
25.6426	1176
25.6500	1015
25.6574	908
25.6648	922
25.6722	930
25.6796	885
25.6870	912
25.6944	805
25.7018	703
25.7092	634
25.7166	503
25.7240	450
25.7314	368
25.7388	326
25.7462	300
25.7536	276
25.7610	243
25.7684	243
25.7758	215
25.7832	197
25.7906	212
25.7979	227
25.8053	222
25.8127	205
25.8201	232
25.8275	242
25.8349	235
25.8423	274
25.8497	287
25.8571	327
25.8645	336
25.8719	350
25.8793	378
25.8867	365
25.8941	340
25.9015	346
25.9089	344
25.9163	355
25.9237	328
25.9311	310
25.9385	317
25.9459	293
25.9532	269
25.9606	285
25.9680	234
25.9754	235
25.9828	238
25.9902	214
25.9976	186
26.0050	169
26.0124	154
26.0198	166
26.0272	163
26.0346	138
26.0420	150
26.0494	131
26.0568	127
26.0642	130
26.0716	141
26.0790	116
26.0864	118
26.0938	111
26.1012	110
26.1085	129
26.1159	120
26.1233	127
26.1307	114
26.1381	117
26.1455	134
26.1529	129
26.1603	143
26.1677	103
26.1751	122
26.1825	146
26.1899	110
26.1973	129
26.2047	108
26.2121	97
26.2195	126
26.2269	97
26.2343	106
26.2417	130
26.2491	117
26.2565	140
26.2638	138
26.2712	135
26.2786	132
26.2860	135
26.2934	142
26.3008	133
26.3082	135
26.3156	127
26.3230	124
26.3304	123
26.3378	129
26.3452	127
26.3526	140
26.3600	125
26.3674	151
26.3748	162
26.3822	161
26.3896	149
26.3970	184
26.4044	172
26.4118	206
26.4191	208
26.4265	241
26.4339	266
26.4413	254
26.4487	340
26.4561	366
26.4635	402
26.4709	492
26.4783	502
26.4857	633
26.4931	768
26.5005	870
26.5079	1089
26.5153	1288
26.5227	1388
26.5301	1534
26.5375	1710
26.5449	1733
26.5523	1878
26.5597	1882
26.5671	1871
26.5744	1783
26.5818	1678
26.5892	1638
26.5966	1657
26.6040	1632
26.6114	1554
26.6188	1408
26.6262	1370
26.6336	1210
26.6410	1074
26.6484	964
26.6558	797
26.6632	720
26.6706	631
26.6780	632
26.6854	519
26.6928	447
26.7002	378
26.7076	316
26.7150	281
26.7224	261
26.7297	231
26.7371	219
26.7445	200
26.7519	162
26.7593	182
26.7667	163
26.7741	165
26.7815	168
26.7889	149
26.7963	154
26.8037	120
26.8111	157
26.8185	122
26.8259	137
26.8333	144
26.8407	120
26.8481	144
26.8555	124
26.8629	117
26.8703	118
26.8777	127
26.8850	130
26.8924	122
26.8998	121
26.9072	126
26.9146	127
26.9220	143
26.9294	117
26.9368	125
26.9442	129
26.9516	107
26.9590	120
26.9664	124
26.9738	99
26.9812	110
26.9886	116
26.9960	128
27.0034	104
27.0108	132
27.0182	113
27.0256	113
27.0330	120
27.0404	135
27.0477	102
27.0551	122
27.0625	102
27.0699	104
27.0773	121
27.0847	103
27.0921	108
27.0995	124
27.1069	119
27.1143	124
27.1217	98
27.1291	97
27.1365	124
27.1439	102
27.1513	103
27.1587	110
27.1661	104
27.1735	127
27.1809	116
27.1883	96
27.1957	111
27.2030	112
27.2104	118
27.2178	105
27.2252	114
27.2326	106
27.2400	105
27.2474	129
27.2548	115
27.2622	114
27.2696	106
27.2770	120
27.2844	124
27.2918	119
27.2992	118
27.3066	135
27.3140	150
27.3214	145
27.3288	116
27.3362	143
27.3436	130
27.3510	160
27.3583	169
27.3657	173
27.3731	159
27.3805	197
27.3879	188
27.3953	214
27.4027	244
27.4101	287
27.4175	292
27.4249	371
27.4323	407
27.4397	505
27.4471	566
27.4545	632
27.4619	760
27.4693	790
27.4767	853
27.4841	865
27.4915	856
27.4989	857
27.5063	799
27.5136	788
27.5210	801
27.5284	753
27.5358	787
27.5432	756
27.5506	694
27.5580	685
27.5654	598
27.5728	599
27.5802	509
27.5876	442
27.5950	426
27.6024	388
27.6098	388
27.6172	347
27.6246	278
27.6320	277
27.6394	261
27.6468	247
27.6542	230
27.6616	231
27.6689	221
27.6763	211
27.6837	187
27.6911	177
27.6985	171
27.7059	159
27.7133	160
27.7207	161
27.7281	143
27.7355	141
27.7429	143
27.7503	143
27.7577	119
27.7651	134
27.7725	118
27.7799	128
27.7873	103
27.7947	113
27.8021	103
27.8095	124
27.8169	112
27.8242	105
27.8316	97
27.8390	114
27.8464	118
27.8538	119
27.8612	127
27.8686	106
27.8760	102
27.8834	92
27.8908	122
27.8982	101
27.9056	103
27.9130	96
27.9204	107
27.9278	100
27.9352	101
27.9426	101
27.9500	110
27.9574	122
27.9648	96
27.9722	92
27.9795	102
27.9869	98
27.9943	109
28.0017	101
28.0091	107
28.0165	104
28.0239	107
28.0313	132
28.0387	103
28.0461	95
28.0535	100
28.0609	97
28.0683	111
28.0757	104
28.0831	100
28.0905	113
28.0979	124
28.1053	109
28.1127	96
28.1201	119
28.1275	107
28.1348	87
28.1422	116
28.1496	87
28.1570	111
28.1644	102
28.1718	95
28.1792	121
28.1866	95
28.1940	98
28.2014	99
28.2088	100
28.2162	93
28.2236	97
28.2310	105
28.2384	109
28.2458	78
28.2532	102
28.2606	115
28.2680	98
28.2754	111
28.2828	130
28.2901	109
28.2975	109
28.3049	92
28.3123	107
28.3197	134
28.3271	120
28.3345	119
28.3419	138
28.3493	158
28.3567	118
28.3641	140
28.3715	151
28.3789	175
28.3863	189
28.3937	214
28.4011	217
28.4085	254
28.4159	300
28.4233	347
28.4307	417
28.4381	487
28.4454	534
28.4528	559
28.4602	563
28.4676	585
28.4750	560
28.4824	555
28.4898	583
28.4972	544
28.5046	540
28.5120	551
28.5194	528
28.5268	522
28.5342	480
28.5416	465
28.5490	410
28.5564	375
28.5638	345
28.5712	351
28.5786	325
28.5860	286
28.5934	280
28.6008	246
28.6081	250
28.6155	193
28.6229	158
28.6303	147
28.6377	171
28.6451	155
28.6525	144
28.6599	139
28.6673	149
28.6747	118
28.6821	110
28.6895	98
28.6969	106
28.7043	107
28.7117	101
28.7191	104
28.7265	101
28.7339	114
28.7413	92
28.7487	105
28.7561	103
28.7634	126
28.7708	110
28.7782	93
28.7856	99
28.7930	97
28.8004	109
28.8078	94
28.8152	122
28.8226	97
28.8300	92
28.8374	116
28.8448	111
28.8522	143
28.8596	132
28.8670	125
28.8744	110
28.8818	156
28.8892	156
28.8966	129
28.9040	136
28.9114	138
28.9187	137
28.9261	168
28.9335	178
28.9409	203
28.9483	217
28.9557	221
28.9631	230
28.9705	233
28.9779	261
28.9853	285
28.9927	294
29.0001	335
29.0075	348
29.0149	370
29.0223	390
29.0297	386
29.0371	388
29.0445	404
29.0519	381
29.0593	388
29.0667	384
29.0740	337
29.0814	360
29.0888	334
29.0962	286
29.1036	291
29.1110	299
29.1184	283
29.1258	236
29.1332	227
29.1406	199
29.1480	212
29.1554	184
29.1628	174
29.1702	163
29.1776	130
29.1850	133
29.1924	118
29.1998	122
29.2072	112
29.2146	109
29.2220	111
29.2293	102
29.2367	99
29.2441	108
29.2515	93
29.2589	107
29.2663	109
29.2737	87
29.2811	89
29.2885	105
29.2959	97
29.3033	101
29.3107	91
29.3181	94
29.3255	87
29.3329	89
29.3403	85
29.3477	89
29.3551	91
29.3625	89
29.3699	98
29.3773	90
29.3846	72
29.3920	95
29.3994	98
29.4068	99
29.4142	108
29.4216	99
29.4290	92
29.4364	93
29.4438	83
29.4512	83
29.4586	86
29.4660	88
29.4734	104
29.4808	71
29.4882	96
29.4956	76
29.5030	104
29.5104	113
29.5178	92
29.5252	96
29.5326	108
29.5399	107
29.5473	96
29.5547	98
29.5621	100
29.5695	108
29.5769	108
29.5843	89
29.5917	88
29.5991	109
29.6065	103
29.6139	116
29.6213	109
29.6287	94
29.6361	92
29.6435	105
29.6509	94
29.6583	103
29.6657	100
29.6731	107
29.6805	101
29.6879	92
29.6952	118
29.7026	88
29.7100	93
29.7174	85
29.7248	98
29.7322	83
29.7396	87
29.7470	100
29.7544	83
29.7618	86
29.7692	95
29.7766	85
29.7840	91
29.7914	82
29.7988	80
29.8062	85
29.8136	73
29.8210	92
29.8284	87
29.8358	81
29.8432	71
29.8505	94
29.8579	80
29.8653	90
29.8727	89
29.8801	84
29.8875	92
29.8949	84
29.9023	93
29.9097	79
29.9171	91
29.9245	86
29.9319	69
29.9393	96
29.9467	100
29.9541	79
29.9615	86
29.9689	79
29.9763	86
29.9837	83
29.9911	67
29.9985	72
30.0058	82
30.0132	81
30.0206	73
30.0280	83
30.0354	60
30.0428	87
30.0502	75
30.0576	58
30.0650	92
30.0724	78
30.0798	94
30.0872	82
30.0946	79
30.1020	88
30.1094	77
30.1168	79
30.1242	85
30.1316	75
30.1390	83
30.1464	64
30.1538	76
30.1612	90
30.1685	86
30.1759	75
30.1833	86
30.1907	77
30.1981	86
30.2055	94
30.2129	70
30.2203	83
30.2277	87
30.2351	90
30.2425	85
30.2499	84
30.2573	97
30.2647	98
30.2721	92
30.2795	86
30.2869	77
30.2943	86
30.3017	76
30.3091	74
30.3165	81
30.3238	85
30.3312	86
30.3386	86
30.3460	78
30.3534	79
30.3608	78
30.3682	69
30.3756	86
30.3830	88
30.3904	80
30.3978	78
30.4052	85
30.4126	73
30.4200	85
30.4274	104
30.4348	89
30.4422	83
30.4496	88
30.4570	90
30.4644	86
30.4718	111
30.4791	101
30.4865	102
30.4939	118
30.5013	120
30.5087	139
30.5161	120
30.5235	151
30.5309	137
30.5383	117
30.5457	127
30.5531	120
30.5605	153
30.5679	140
30.5753	139
30.5827	139
30.5901	138
30.5975	120
30.6049	131
30.6123	144
30.6197	146
30.6271	124
30.6344	117
30.6418	120
30.6492	125
30.6566	149
30.6640	127
30.6714	144
30.6788	126
30.6862	107
30.6936	120
30.7010	121
30.7084	112
30.7158	132
30.7232	115
30.7306	104
30.7380	113
30.7454	114
30.7528	97
30.7602	108
30.7676	102
30.7750	95
30.7824	106
30.7897	106
30.7971	111
30.8045	85
30.8119	98
30.8193	79
30.8267	78
30.8341	96
30.8415	66
30.8489	77
30.8563	97
30.8637	99
30.8711	86
30.8785	86
30.8859	65
30.8933	76
30.9007	85
30.9081	79
30.9155	62
30.9229	74
30.9303	93
30.9377	78
30.9450	85
30.9524	78
30.9598	71
30.9672	83
30.9746	92
30.9820	76
30.9894	94
30.9968	84
31.0042	99
31.0116	79
31.0190	86
31.0264	83
31.0338	69
31.0412	76
31.0486	91
31.0560	73
31.0634	56
31.0708	75
31.0782	83
31.0856	79
31.0930	89
31.1003	64
31.1077	87
31.1151	100
31.1225	72
31.1299	87
31.1373	83
31.1447	84
31.1521	80
31.1595	78
31.1669	78
31.1743	91
31.1817	77
31.1891	73
31.1965	92
31.2039	73
31.2113	100
31.2187	84
31.2261	81
31.2335	83
31.2409	86
31.2483	95
31.2556	90
31.2630	80
31.2704	74
31.2778	97
31.2852	86
31.2926	94
31.3000	110
31.3074	102
31.3148	94
31.3222	95
31.3296	112
31.3370	104
31.3444	94
31.3518	112
31.3592	112
31.3666	100
31.3740	126
31.3814	124
31.3888	147
31.3962	146
31.4036	193
31.4109	178
31.4183	173
31.4257	198
31.4331	203
31.4405	244
31.4479	201
31.4553	216
31.4627	204
31.4701	213
31.4775	238
31.4849	240
31.4923	186
31.4997	234
31.5071	227
31.5145	208
31.5219	193
31.5293	204
31.5367	209
31.5441	199
31.5515	200
31.5589	186
31.5662	164
31.5736	193
31.5810	160
31.5884	182
31.5958	133
31.6032	155
31.6106	168
31.6180	157
31.6254	152
31.6328	138
31.6402	140
31.6476	139
31.6550	145
31.6624	136
31.6698	137
31.6772	125
31.6846	148
31.6920	128
31.6994	153
31.7068	120
31.7142	126
31.7215	127
31.7289	106
31.7363	105
31.7437	109
31.7511	110
31.7585	107
31.7659	105
31.7733	96
31.7807	118
31.7881	86
31.7955	79
31.8029	75
31.8103	79
31.8177	97
31.8251	94
31.8325	83
31.8399	98
31.8473	104
31.8547	110
31.8621	96
31.8695	98
31.8769	93
31.8842	111
31.8916	111
31.8990	109
31.9064	127
31.9138	119
31.9212	119
31.9286	134
31.9360	141
31.9434	126
31.9508	117
31.9582	135
31.9656	128
31.9730	109
31.9804	122
31.9878	154
31.9952	143
32.0026	117
32.0100	130
32.0174	142
32.0248	125
32.0322	126
32.0395	136
32.0469	142
32.0543	110
32.0617	110
32.0691	96
32.0765	100
32.0839	101
32.0913	95
32.0987	72
32.1061	106
32.1135	79
32.1209	81
32.1283	81
32.1357	90
32.1431	91
32.1505	81
32.1579	75
32.1653	90
32.1727	73
32.1801	92
32.1875	90
32.1948	83
32.2022	75
32.2096	79
32.2170	73
32.2244	77
32.2318	83
32.2392	88
32.2466	64
32.2540	86
32.2614	87
32.2688	88
32.2762	76
32.2836	69
32.2910	76
32.2984	88
32.3058	88
32.3132	80
32.3206	77
32.3280	79
32.3354	77
32.3428	78
32.3501	84
32.3575	91
32.3649	76
32.3723	104
32.3797	78
32.3871	71
32.3945	78
32.4019	73
32.4093	94
32.4167	84
32.4241	79
32.4315	81
32.4389	100
32.4463	78
32.4537	74
32.4611	79
32.4685	87
32.4759	103
32.4833	81
32.4907	72
32.4981	78
32.5054	99
32.5128	81
32.5202	78
32.5276	76
32.5350	80
32.5424	79
32.5498	75
32.5572	79
32.5646	84
32.5720	77
32.5794	75
32.5868	85
32.5942	87
32.6016	86
32.6090	76
32.6164	99
32.6238	84
32.6312	82
32.6386	67
32.6460	81
32.6534	73
32.6607	71
32.6681	71
32.6755	70
32.6829	75
32.6903	69
32.6977	77
32.7051	79
32.7125	74
32.7199	77
32.7273	74
32.7347	74
32.7421	88
32.7495	93
32.7569	68
32.7643	65
32.7717	66
32.7791	84
32.7865	74
32.7939	72
32.8013	80
32.8087	84
32.8160	77
32.8234	83
32.8308	78
32.8382	78
32.8456	79
32.8530	73
32.8604	70
32.8678	106
32.8752	86
32.8826	93
32.8900	96
32.8974	93
32.9048	95
32.9122	105
32.9196	101
32.9270	91
32.9344	117
32.9418	95
32.9492	90
32.9566	83
32.9640	71
32.9713	110
32.9787	91
32.9861	76
32.9935	84
33.0009	95
33.0083	90
33.0157	80
33.0231	80
33.0305	82
33.0379	85
33.0453	75
33.0527	93
33.0601	82
33.0675	81
33.0749	77
33.0823	88
33.0897	79
33.0971	78
33.1045	79
33.1119	81
33.1193	96
33.1266	89
33.1340	83
33.1414	90
33.1488	84
33.1562	82
33.1636	82
33.1710	67
33.1784	74
33.1858	79
33.1932	90
33.2006	99
33.2080	77
33.2154	74
33.2228	80
33.2302	65
33.2376	77
33.2450	83
33.2524	76
33.2598	100
33.2672	75
33.2746	83
33.2819	92
33.2893	91
33.2967	82
33.3041	95
33.3115	86
33.3189	96
33.3263	74
33.3337	115
33.3411	115
33.3485	100
33.3559	121
33.3633	114
33.3707	113
33.3781	120
33.3855	108
33.3929	99
33.4003	111
33.4077	106
33.4151	121
33.4225	110
33.4299	128
33.4373	116
33.4446	124
33.4520	126
33.4594	144
33.4668	123
33.4742	134
33.4816	155
33.4890	140
33.4964	132
33.5038	171
33.5112	190
33.5186	214
33.5260	218
33.5334	255
33.5408	279
33.5482	277
33.5556	270
33.5630	294
33.5704	289
33.5778	301
33.5852	350
33.5926	371
33.5999	367
33.6073	387
33.6147	384
33.6221	391
33.6295	390
33.6369	347
33.6443	351
33.6517	345
33.6591	328
33.6665	292
33.6739	291
33.6813	269
33.6887	265
33.6961	243
33.7035	279
33.7109	227
33.7183	204
33.7257	194
33.7331	177
33.7405	176
33.7479	138
33.7552	170
33.7626	138
33.7700	128
33.7774	106
33.7848	112
33.7922	122
33.7996	109
33.8070	109
33.8144	90
33.8218	103
33.8292	96
33.8366	98
33.8440	84
33.8514	93
33.8588	87
33.8662	90
33.8736	83
33.8810	98
33.8884	95
33.8958	104
33.9032	102
33.9105	90
33.9179	93
33.9253	96
33.9327	117
33.9401	87
33.9475	110
33.9549	97
33.9623	117
33.9697	114
33.9771	126
33.9845	112
33.9919	129
33.9993	126
34.0067	124
34.0141	138
34.0215	115
34.0289	119
34.0363	124
34.0437	132
34.0511	147
34.0585	130
34.0658	132
34.0732	130
34.0806	154
34.0880	158
34.0954	148
34.1028	158
34.1102	154
34.1176	127
34.1250	140
34.1324	157
34.1398	140
34.1472	146
34.1546	132
34.1620	126
34.1694	111
34.1768	120
34.1842	128
34.1916	113
34.1990	127
34.2064	109
34.2138	105
34.2211	116
34.2285	122
34.2359	86
34.2433	79
34.2507	105
34.2581	77
34.2655	88
34.2729	78
34.2803	67
34.2877	94
34.2951	62
34.3025	72
34.3099	68
34.3173	66
34.3247	75
34.3321	72
34.3395	67
34.3469	75
34.3543	89
34.3617	62
34.3691	90
34.3764	93
34.3838	73
34.3912	82
34.3986	66
34.4060	80
34.4134	73
34.4208	76
34.4282	69
34.4356	68
34.4430	98
34.4504	90
34.4578	68
34.4652	72
34.4726	80
34.4800	82
34.4874	74
34.4948	77
34.5022	67
34.5096	72
34.5170	68
34.5244	80
34.5317	72
34.5391	89
34.5465	69
34.5539	73
34.5613	68
34.5687	80
34.5761	72
34.5835	73
34.5909	80
34.5983	64
34.6057	86
34.6131	87
34.6205	74
34.6279	82
34.6353	70
34.6427	78
34.6501	82
34.6575	85
34.6649	75
34.6723	69
34.6797	73
34.6870	67
34.6944	74
34.7018	69
34.7092	68
34.7166	79
34.7240	76
34.7314	72
34.7388	82
34.7462	104
34.7536	73
34.7610	72
34.7684	86
34.7758	63
34.7832	80
34.7906	81
34.7980	77
34.8054	93
34.8128	71
34.8202	73
34.8276	76
34.8350	60
34.8423	91
34.8497	74
34.8571	78
34.8645	87
34.8719	64
34.8793	74
34.8867	81
34.8941	63
34.9015	70
34.9089	67
34.9163	74
34.9237	89
34.9311	82
34.9385	83
34.9459	87
34.9533	94
34.9607	90
34.9681	102
34.9755	103
34.9829	115
34.9903	109
34.9977	87
35.0050	110
35.0124	102
35.0198	121
35.0272	98
35.0346	109
35.0420	113
35.0494	107
35.0568	73
35.0642	119
35.0716	106
35.0790	119
35.0864	80
35.0938	108
35.1012	92
35.1086	89
35.1160	96
35.1234	102
35.1308	103
35.1382	98
35.1456	102
35.1530	118
35.1603	122
35.1677	112
35.1751	138
35.1825	128
35.1899	114
35.1973	132
35.2047	121
35.2121	142
35.2195	128
35.2269	137
35.2343	122
35.2417	130
35.2491	106
35.2565	112
35.2639	106
35.2713	117
35.2787	125
35.2861	131
35.2935	112
35.3009	90
35.3083	141
35.3156	125
35.3230	110
35.3304	100
35.3378	106
35.3452	93
35.3526	96
35.3600	81
35.3674	87
35.3748	89
35.3822	87
35.3896	105
35.3970	80
35.4044	97
35.4118	89
35.4192	74
35.4266	85
35.4340	107
35.4414	107
35.4488	97
35.4562	111
35.4636	127
35.4709	118
35.4783	123
35.4857	153
35.4931	127
35.5005	142
35.5079	167
35.5153	133
35.5227	123
35.5301	117
35.5375	125
35.5449	132
35.5523	127
35.5597	125
35.5671	113
35.5745	133
35.5819	127
35.5893	136
35.5967	127
35.6041	113
35.6115	103
35.6189	110
35.6262	82
35.6336	96
35.6410	104
35.6484	88
35.6558	75
35.6632	79
35.6706	91
35.6780	74
35.6854	96
35.6928	87
35.7002	85
35.7076	82
35.7150	85
35.7224	88
35.7298	78
35.7372	96
35.7446	95
35.7520	80
35.7594	73
35.7668	89
35.7742	94
35.7815	88
35.7889	76
35.7963	72
35.8037	84
35.8111	84
35.8185	85
35.8259	67
35.8333	77
35.8407	74
35.8481	92
35.8555	97
35.8629	89
35.8703	81
35.8777	81
35.8851	85
35.8925	94
35.8999	90
35.9073	99
35.9147	85
35.9221	94
35.9295	76
35.9368	97
35.9442	107
35.9516	103
35.9590	109
35.9664	105
35.9738	117
35.9812	100
35.9886	119
35.9960	124
36.0034	138
36.0108	157
36.0182	159
36.0256	203
36.0330	223
36.0404	233
36.0478	276
36.0552	304
36.0626	281
36.0700	264
36.0774	254
36.0848	245
36.0921	216
36.0995	266
36.1069	226
36.1143	275
36.1217	250
36.1291	249
36.1365	261
36.1439	262
36.1513	291
36.1587	262
36.1661	252
36.1735	235
36.1809	255
36.1883	249
36.1957	217
36.2031	228
36.2105	228
36.2179	226
36.2253	217
36.2327	211
36.2401	198
36.2474	185
36.2548	179
36.2622	174
36.2696	153
36.2770	174
36.2844	144
36.2918	151
36.2992	146
36.3066	155
36.3140	144
36.3214	176
36.3288	156
36.3362	159
36.3436	164
36.3510	191
36.3584	198
36.3658	162
36.3732	179
36.3806	178
36.3880	175
36.3954	171
36.4027	159
36.4101	156
36.4175	160
36.4249	154
36.4323	148
36.4397	139
36.4471	130
36.4545	146
36.4619	126
36.4693	128
36.4767	135
36.4841	118
36.4915	130
36.4989	108
36.5063	103
36.5137	99
36.5211	109
36.5285	98
36.5359	86
36.5433	90
36.5507	79
36.5580	98
36.5654	82
36.5728	74
36.5802	69
36.5876	89
36.5950	84
36.6024	69
36.6098	81
36.6172	81
36.6246	73
36.6320	71
36.6394	76
36.6468	86
36.6542	89
36.6616	85
36.6690	88
36.6764	72
36.6838	78
36.6912	102
36.6986	66
36.7060	71
36.7134	65
36.7207	87
36.7281	71
36.7355	74
36.7429	74
36.7503	83
36.7577	78
36.7651	81
36.7725	102
36.7799	97
36.7873	66
36.7947	74
36.8021	83
36.8095	95
36.8169	67
36.8243	74
36.8317	78
36.8391	70
36.8465	75
36.8539	86
36.8613	65
36.8687	75
36.8760	59
36.8834	76
36.8908	76
36.8982	81
36.9056	78
36.9130	87
36.9204	80
36.9278	72
36.9352	93
36.9426	86
36.9500	85
36.9574	86
36.9648	83
36.9722	81
36.9796	79
36.9870	78
36.9944	68
37.0018	79
37.0092	89
37.0166	98
37.0240	72
37.0313	95
37.0387	79
37.0461	76
37.0535	86
37.0609	86
37.0683	75
37.0757	89
37.0831	92
37.0905	82
37.0979	83
37.1053	66
37.1127	95
37.1201	95
37.1275	72
37.1349	94
37.1423	70
37.1497	94
37.1571	78
37.1645	107
37.1719	88
37.1793	96
37.1866	94
37.1940	117
37.2014	112
37.2088	99
37.2162	116
37.2236	116
37.2310	102
37.2384	89
37.2458	96
37.2532	102
37.2606	101
37.2680	99
37.2754	126
37.2828	118
37.2902	98
37.2976	86
37.3050	102
37.3124	86
37.3198	108
37.3272	98
37.3346	114
37.3419	79
37.3493	86
37.3567	87
37.3641	84
37.3715	95
37.3789	84
37.3863	82
37.3937	80
37.4011	68
37.4085	70
37.4159	91
37.4233	65
37.4307	93
37.4381	77
37.4455	73
37.4529	98
37.4603	95
37.4677	75
37.4751	70
37.4825	81
37.4899	94
37.4972	85
37.5046	82
37.5120	84
37.5194	86
37.5268	98
37.5342	84
37.5416	89
37.5490	99
37.5564	91
37.5638	88
37.5712	86
37.5786	102
37.5860	93
37.5934	108
37.6008	75
37.6082	124
37.6156	104
37.6230	128
37.6304	126
37.6378	127
37.6452	157
37.6525	149
37.6599	153
37.6673	169
37.6747	180
37.6821	171
37.6895	153
37.6969	180
37.7043	175
37.7117	148
37.7191	148
37.7265	186
37.7339	171
37.7413	192
37.7487	182
37.7561	158
37.7635	183
37.7709	172
37.7783	171
37.7857	188
37.7931	164
37.8005	157
37.8078	147
37.8152	137
37.8226	122
37.8300	138
37.8374	138
37.8448	144
37.8522	118
37.8596	101
37.8670	107
37.8744	117
37.8818	97
37.8892	119
37.8966	95
37.9040	96
37.9114	109
37.9188	99
37.9262	78
37.9336	92
37.9410	98
37.9484	90
37.9558	97
37.9631	87
37.9705	87
37.9779	76
37.9853	87
37.9927	80
38.0001	86
38.0075	85
38.0149	87
38.0223	103
38.0297	90
38.0371	76
38.0445	77
38.0519	80
38.0593	74
38.0667	77
38.0741	89
38.0815	97
38.0889	89
38.0963	90
38.1037	88
38.1111	88
38.1184	74
38.1258	98
38.1332	80
38.1406	79
38.1480	97
38.1554	65
38.1628	80
38.1702	86
38.1776	85
38.1850	72
38.1924	79
38.1998	87
38.2072	90
38.2146	80
38.2220	85
38.2294	96
38.2368	88
38.2442	107
38.2516	87
38.2590	86
38.2664	91
38.2738	100
38.2811	89
38.2885	90
38.2959	112
38.3033	110
38.3107	116
38.3181	123
38.3255	119
38.3329	120
38.3403	142
38.3477	130
38.3551	140
38.3625	152
38.3699	125
38.3773	130
38.3847	139
38.3921	134
38.3995	136
38.4069	130
38.4143	146
38.4217	113
38.4291	127
38.4364	134
38.4438	126
38.4512	127
38.4586	116
38.4660	113
38.4734	135
38.4808	112
38.4882	122
38.4956	137
38.5030	110
38.5104	134
38.5178	132
38.5252	123
38.5326	115
38.5400	140
38.5474	147
38.5548	120
38.5622	144
38.5696	111
38.5770	127
38.5844	116
38.5917	107
38.5991	102
38.6065	102
38.6139	107
38.6213	103
38.6287	116
38.6361	112
38.6435	105
38.6509	117
38.6583	109
38.6657	85
38.6731	92
38.6805	86
38.6879	92
38.6953	105
38.7027	95
38.7101	84
38.7175	73
38.7249	70
38.7323	82
38.7397	88
38.7470	84
38.7544	81
38.7618	83
38.7692	93
38.7766	84
38.7840	102
38.7914	94
38.7988	75
38.8062	90
38.8136	70
38.8210	81
38.8284	88
38.8358	77
38.8432	87
38.8506	82
38.8580	88
38.8654	80
38.8728	84
38.8802	92
38.8876	79
38.8950	89
38.9023	106
38.9097	70
38.9171	104
38.9245	85
38.9319	97
38.9393	78
38.9467	73
38.9541	93
38.9615	78
38.9689	92
38.9763	79
38.9837	91
38.9911	96
38.9985	84
39.0059	80
39.0133	76
39.0207	86
39.0281	91
39.0355	82
39.0429	93
39.0503	88
39.0576	87
39.0650	90
39.0724	97
39.0798	99
39.0872	97
39.0946	83
39.1020	85
39.1094	84
39.1168	84
39.1242	84
39.1316	115
39.1390	88
39.1464	81
39.1538	76
39.1612	109
39.1686	83
39.1760	105
39.1834	97
39.1908	109
39.1982	110
39.2056	104
39.2129	100
39.2203	114
39.2277	112
39.2351	128
39.2425	137
39.2499	149
39.2573	146
39.2647	184
39.2721	177
39.2795	200
39.2869	184
39.2943	243
39.3017	206
39.3091	262
39.3165	241
39.3239	236
39.3313	234
39.3387	229
39.3461	236
39.3535	210
39.3609	227
39.3682	210
39.3756	198
39.3830	230
39.3904	221
39.3978	216
39.4052	261
39.4126	263
39.4200	257
39.4274	219
39.4348	219
39.4422	208
39.4496	215
39.4570	216
39.4644	244
39.4718	211
39.4792	211
39.4866	214
39.4940	195
39.5014	186
39.5088	203
39.5162	200
39.5235	211
39.5309	186
39.5383	187
39.5457	186
39.5531	171
39.5605	169
39.5679	169
39.5753	150
39.5827	179
39.5901	168
39.5975	149
39.6049	153
39.6123	148
39.6197	140
39.6271	135
39.6345	153
39.6419	127
39.6493	137
39.6567	134
39.6641	113
39.6715	118
39.6788	105
39.6862	108
39.6936	107
39.7010	111
39.7084	113
39.7158	110
39.7232	100
39.7306	107
39.7380	94
39.7454	95
39.7528	112
39.7602	106
39.7676	104
39.7750	104
39.7824	101
39.7898	98
39.7972	103
39.8046	111
39.8120	99
39.8194	118
39.8268	112
39.8342	118
39.8415	136
39.8489	129
39.8563	119
39.8637	125
39.8711	117
39.8785	114
39.8859	119
39.8933	121
39.9007	99
39.9081	99
39.9155	116
39.9229	125
39.9303	107
39.9377	118
39.9451	116
39.9525	105
39.9599	98
39.9673	99
39.9747	119
39.9821	94
39.9895	87
39.9968	101
