2.0000	113
2.0074	97
2.0148	91
2.0222	120
2.0296	104
2.0370	83
2.0444	113
2.0518	101
2.0592	91
2.0666	88
2.0740	103
2.0813	104
2.0887	98
2.0961	103
2.1035	93
2.1109	115
2.1183	99
2.1257	115
2.1331	110
2.1405	100
2.1479	88
2.1553	100
2.1627	110
2.1701	102
2.1775	114
2.1849	108
2.1923	75
2.1997	97
2.2071	116
2.2145	121
2.2219	113
2.2293	105
2.2366	115
2.2440	88
2.2514	124
2.2588	122
2.2662	112
2.2736	112
2.2810	116
2.2884	110
2.2958	100
2.3032	83
2.3106	108
2.3180	110
2.3254	105
2.3328	90
2.3402	120
2.3476	129
2.3550	112
2.3624	102
2.3698	104
2.3772	103
2.3846	114
2.3919	118
2.3993	122
2.4067	94
2.4141	83
2.4215	109
2.4289	101
2.4363	91
2.4437	93
2.4511	101
2.4585	94
2.4659	120
2.4733	106
2.4807	100
2.4881	83
2.4955	101
2.5029	103
2.5103	99
2.5177	113
2.5251	101
2.5325	91
2.5399	84
2.5472	110
2.5546	103
2.5620	92
2.5694	88
2.5768	97
2.5842	96
2.5916	85
2.5990	79
2.6064	104
2.6138	92
2.6212	106
2.6286	89
2.6360	104
2.6434	103
2.6508	116
2.6582	89
2.6656	94
2.6730	91
2.6804	99
2.6878	87
2.6952	99
2.7025	93
2.7099	93
2.7173	91
2.7247	86
2.7321	91
2.7395	69
2.7469	93
2.7543	78
2.7617	102
2.7691	89
2.7765	91
2.7839	88
2.7913	75
2.7987	86
2.8061	98
2.8135	94
2.8209	85
2.8283	87
2.8357	102
2.8431	73
2.8505	92
2.8579	80
2.8652	75
2.8726	87
2.8800	100
2.8874	88
2.8948	81
2.9022	83
2.9096	87
2.9170	78
2.9244	87
2.9318	82
2.9392	86
2.9466	99
2.9540	73
2.9614	89
2.9688	80
2.9762	87
2.9836	90
2.9910	85
2.9984	86
3.0058	81
3.0132	101
3.0205	59
3.0279	81
3.0353	76
3.0427	76
3.0501	82
3.0575	85
3.0649	72
3.0723	83
3.0797	86
3.0871	81
3.0945	93
3.1019	81
3.1093	83
3.1167	76
3.1241	92
3.1315	77
3.1389	73
3.1463	66
3.1537	73
3.1611	77
3.1685	81
3.1758	85
3.1832	85
3.1906	69
3.1980	68
3.2054	75
3.2128	70
3.2202	65
3.2276	78
3.2350	64
3.2424	67
3.2498	84
3.2572	89
3.2646	80
3.2720	76
3.2794	72
3.2868	65
3.2942	73
3.3016	84
3.3090	78
3.3164	72
3.3238	68
3.3311	66
3.3385	73
3.3459	66
3.3533	69
3.3607	72
3.3681	81
3.3755	64
3.3829	64
3.3903	80
3.3977	71
3.4051	66
3.4125	73
3.4199	84
3.4273	65
3.4347	73
3.4421	63
3.4495	74
3.4569	65
3.4643	65
3.4717	66
3.4791	71
3.4864	67
3.4938	72
3.5012	61
3.5086	64
3.5160	73
3.5234	71
3.5308	65
3.5382	76
3.5456	62
3.5530	70
3.5604	65
3.5678	69
3.5752	75
3.5826	61
3.5900	68
3.5974	69
3.6048	68
3.6122	77
3.6196	63
3.6270	70
3.6344	68
3.6417	56
3.6491	64
3.6565	60
3.6639	59
3.6713	62
3.6787	79
3.6861	68
3.6935	62
3.7009	60
3.7083	69
3.7157	64
3.7231	75
3.7305	55
3.7379	59
3.7453	56
3.7527	47
3.7601	57
3.7675	59
3.7749	62
3.7823	63
3.7897	71
3.7970	63
3.8044	54
3.8118	65
3.8192	63
3.8266	49
3.8340	67
3.8414	57
3.8488	53
3.8562	58
3.8636	61
3.8710	57
3.8784	59
3.8858	56
3.8932	74
3.9006	61
3.9080	53
3.9154	50
3.9228	60
3.9302	52
3.9376	54
3.9450	54
3.9523	44
3.9597	50
3.9671	62
3.9745	65
3.9819	52
3.9893	47
3.9967	42
4.0041	56
4.0115	63
4.0189	49
4.0263	65
4.0337	46
4.0411	43
4.0485	49
4.0559	55
4.0633	48
4.0707	45
4.0781	53
4.0855	38
4.0929	62
4.1003	47
4.1076	44
4.1150	50
4.1224	54
4.1298	56
4.1372	59
4.1446	41
4.1520	44
4.1594	50
4.1668	54
4.1742	49
4.1816	52
4.1890	34
4.1964	41
4.2038	48
4.2112	41
4.2186	43
4.2260	39
4.2334	43
4.2408	51
4.2482	34
4.2556	48
4.2629	51
4.2703	48
4.2777	46
4.2851	46
4.2925	46
4.2999	44
4.3073	36
4.3147	47
4.3221	49
4.3295	50
4.3369	46
4.3443	53
4.3517	46
4.3591	41
4.3665	52
4.3739	58
4.3813	46
4.3887	34
4.3961	43
4.4035	52
4.4109	41
4.4183	42
4.4256	40
4.4330	37
4.4404	46
4.4478	42
4.4552	40
4.4626	45
4.4700	42
4.4774	31
4.4848	34
4.4922	47
4.4996	36
4.5070	40
4.5144	42
4.5218	39
4.5292	39
4.5366	46
4.5440	45
4.5514	43
4.5588	40
4.5662	49
4.5736	28
4.5809	43
4.5883	47
4.5957	34
4.6031	48
4.6105	41
4.6179	37
4.6253	42
4.6327	46
4.6401	31
4.6475	42
4.6549	34
4.6623	39
4.6697	43
4.6771	34
4.6845	44
4.6919	39
4.6993	38
4.7067	45
4.7141	44
4.7215	36
4.7289	38
4.7362	44
4.7436	55
4.7510	40
4.7584	34
4.7658	42
4.7732	48
4.7806	38
4.7880	49
4.7954	36
4.8028	40
4.8102	23
4.8176	34
4.8250	37
4.8324	36
4.8398	44
4.8472	45
4.8546	41
4.8620	46
4.8694	29
4.8768	47
4.8842	34
4.8915	33
4.8989	36
4.9063	33
4.9137	34
4.9211	40
4.9285	30
4.9359	38
4.9433	42
4.9507	34
4.9581	34
4.9655	34
4.9729	43
4.9803	44
4.9877	35
4.9951	34
5.0025	32
5.0099	35
5.0173	31
5.0247	35
5.0321	46
5.0395	39
5.0468	39
5.0542	30
5.0616	38
5.0690	36
5.0764	31
5.0838	30
5.0912	45
5.0986	46
5.1060	40
5.1134	30
5.1208	34
5.1282	35
5.1356	27
5.1430	28
5.1504	43
5.1578	44
5.1652	39
5.1726	43
5.1800	29
5.1874	23
5.1948	37
5.2021	34
5.2095	39
5.2169	46
5.2243	33
5.2317	37
5.2391	25
5.2465	36
5.2539	34
5.2613	32
5.2687	30
5.2761	37
5.2835	40
5.2909	36
5.2983	40
5.3057	37
5.3131	36
5.3205	40
5.3279	37
5.3353	41
5.3427	39
5.3501	34
5.3574	38
5.3648	31
5.3722	35
5.3796	39
5.3870	34
5.3944	42
5.4018	26
5.4092	33
5.4166	37
5.4240	33
5.4314	38
5.4388	33
5.4462	34
5.4536	40
5.4610	37
5.4684	27
5.4758	30
5.4832	19
5.4906	33
5.4980	39
5.5054	31
5.5127	20
5.5201	24
5.5275	25
5.5349	33
5.5423	24
5.5497	29
5.5571	34
5.5645	31
5.5719	48
5.5793	26
5.5867	35
5.5941	21
5.6015	29
5.6089	39
5.6163	27
5.6237	34
5.6311	25
5.6385	31
5.6459	34
5.6533	24
5.6607	32
5.6680	40
5.6754	38
5.6828	27
5.6902	31
5.6976	23
5.7050	24
5.7124	31
5.7198	52
5.7272	41
5.7346	24
5.7420	35
5.7494	44
5.7568	38
5.7642	23
5.7716	33
5.7790	32
5.7864	30
5.7938	28
5.8012	25
5.8086	40
5.8160	32
5.8233	33
5.8307	37
5.8381	20
5.8455	30
5.8529	32
5.8603	40
5.8677	37
5.8751	32
5.8825	33
5.8899	41
5.8973	30
5.9047	42
5.9121	30
5.9195	36
5.9269	32
5.9343	29
5.9417	47
5.9491	38
5.9565	24
5.9639	31
5.9713	33
5.9786	40
5.9860	39
5.9934	49
6.0008	33
6.0082	39
6.0156	41
6.0230	41
6.0304	65
6.0378	66
6.0452	62
6.0526	70
6.0600	65
6.0674	59
6.0748	43
6.0822	54
6.0896	42
6.0970	32
6.1044	49
6.1118	42
6.1192	33
6.1266	32
6.1340	36
6.1413	21
6.1487	26
6.1561	33
6.1635	30
6.1709	27
6.1783	28
6.1857	32
6.1931	31
6.2005	24
6.2079	28
6.2153	31
6.2227	28
6.2301	33
6.2375	32
6.2449	29
6.2523	36
6.2597	36
6.2671	27
6.2745	30
6.2819	33
6.2893	47
6.2966	38
6.3040	34
6.3114	31
6.3188	34
6.3262	36
6.3336	19
6.3410	34
6.3484	31
6.3558	13
6.3632	32
6.3706	33
6.3780	34
6.3854	32
6.3928	36
6.4002	32
6.4076	31
6.4150	29
6.4224	22
6.4298	25
6.4372	34
6.4446	33
6.4519	28
6.4593	29
6.4667	39
6.4741	32
6.4815	22
6.4889	33
6.4963	33
6.5037	34
6.5111	30
6.5185	21
6.5259	38
6.5333	33
6.5407	38
6.5481	25
6.5555	33
6.5629	29
6.5703	32
6.5777	31
6.5851	32
6.5925	35
6.5999	29
6.6072	30
6.6146	25
6.6220	32
6.6294	28
6.6368	22
6.6442	23
6.6516	37
6.6590	25
6.6664	34
6.6738	34
6.6812	34
6.6886	32
6.6960	32
6.7034	22
6.7108	36
6.7182	35
6.7256	45
6.7330	33
6.7404	36
6.7478	36
6.7552	23
6.7625	33
6.7699	34
6.7773	26
6.7847	29
6.7921	24
6.7995	27
6.8069	38
6.8143	38
6.8217	26
6.8291	42
6.8365	26
6.8439	44
6.8513	31
6.8587	32
6.8661	33
6.8735	19
6.8809	26
6.8883	31
6.8957	23
6.9031	30
6.9105	27
6.9178	35
6.9252	28
6.9326	27
6.9400	16
6.9474	36
6.9548	30
6.9622	31
6.9696	37
6.9770	44
6.9844	31
6.9918	30
6.9992	25
7.0066	29
7.0140	27
7.0214	22
7.0288	35
7.0362	32
7.0436	30
7.0510	22
7.0584	30
7.0658	31
7.0731	26
7.0805	34
7.0879	32
7.0953	35
7.1027	25
7.1101	32
7.1175	39
7.1249	31
7.1323	30
7.1397	32
7.1471	35
7.1545	33
7.1619	27
7.1693	32
7.1767	27
7.1841	38
7.1915	34
7.1989	31
7.2063	28
7.2137	29
7.2211	27
7.2284	28
7.2358	42
7.2432	29
7.2506	32
7.2580	32
7.2654	38
7.2728	29
7.2802	34
7.2876	33
7.2950	30
7.3024	32
7.3098	27
7.3172	27
7.3246	27
7.3320	33
7.3394	34
7.3468	30
7.3542	30
7.3616	29
7.3690	26
7.3764	18
7.3837	30
7.3911	22
7.3985	26
7.4059	28
7.4133	28
7.4207	24
7.4281	27
7.4355	35
7.4429	31
7.4503	32
7.4577	44
7.4651	33
7.4725	33
7.4799	30
7.4873	27
7.4947	33
7.5021	35
7.5095	26
7.5169	38
7.5243	29
7.5317	33
7.5390	29
7.5464	25
7.5538	33
7.5612	27
7.5686	36
7.5760	37
7.5834	29
7.5908	43
7.5982	34
7.6056	34
7.6130	37
7.6204	37
7.6278	40
7.6352	30
7.6426	37
7.6500	28
7.6574	29
7.6648	35
7.6722	45
7.6796	31
7.6870	33
7.6944	47
7.7017	48
7.7091	68
7.7165	60
7.7239	53
7.7313	48
7.7387	45
7.7461	32
7.7535	32
7.7609	48
7.7683	28
7.7757	35
7.7831	29
7.7905	47
7.7979	42
7.8053	31
7.8127	38
7.8201	43
7.8275	26
7.8349	38
7.8423	29
7.8497	31
7.8570	36
7.8644	28
7.8718	28
7.8792	36
7.8866	43
7.8940	33
7.9014	27
7.9088	35
7.9162	43
7.9236	39
7.9310	31
7.9384	40
7.9458	45
7.9532	34
7.9606	37
7.9680	54
7.9754	34
7.9828	38
7.9902	39
7.9976	37
8.0050	44
8.0123	32
8.0197	33
8.0271	46
8.0345	44
8.0419	50
8.0493	53
8.0567	48
8.0641	43
8.0715	37
8.0789	48
8.0863	48
8.0937	34
8.1011	51
8.1085	57
8.1159	38
8.1233	36
8.1307	33
8.1381	56
8.1455	46
8.1529	47
8.1603	54
8.1676	43
8.1750	54
8.1824	59
8.1898	55
8.1972	75
8.2046	69
8.2120	61
8.2194	64
8.2268	61
8.2342	72
8.2416	114
8.2490	99
8.2564	113
8.2638	130
8.2712	104
8.2786	125
8.2860	140
8.2934	156
8.3008	144
8.3082	132
8.3156	148
8.3229	153
8.3303	163
8.3377	173
8.3451	146
8.3525	178
8.3599	191
8.3673	231
8.3747	202
8.3821	241
8.3895	255
8.3969	256
8.4043	277
8.4117	306
8.4191	380
8.4265	332
8.4339	404
8.4413	516
8.4487	544
8.4561	577
8.4635	649
8.4709	897
8.4782	1009
8.4856	1401
8.4930	1764
8.5004	2627
8.5078	3870
8.5152	5626
8.5226	7758
8.5300	9279
8.5374	10401
8.5448	10397
8.5522	9502
8.5596	8017
8.5670	6304
8.5744	4639
8.5818	3433
8.5892	2339
8.5966	1744
8.6040	1319
8.6114	1069
8.6188	838
8.6262	650
8.6335	529
8.6409	446
8.6483	387
8.6557	309
8.6631	314
8.6705	279
8.6779	227
8.6853	193
8.6927	188
8.7001	167
8.7075	159
8.7149	150
8.7223	149
8.7297	137
8.7371	123
8.7445	135
8.7519	156
8.7593	129
8.7667	116
8.7741	105
8.7815	126
8.7888	125
8.7962	109
8.8036	112
8.8110	109
8.8184	101
8.8258	112
8.8332	92
8.8406	111
8.8480	106
8.8554	113
8.8628	80
8.8702	95
8.8776	105
8.8850	94
8.8924	83
8.8998	94
8.9072	86
8.9146	91
8.9220	105
8.9294	87
8.9368	93
8.9441	96
8.9515	99
8.9589	101
8.9663	79
8.9737	67
8.9811	91
8.9885	89
8.9959	74
9.0033	77
9.0107	79
9.0181	92
9.0255	94
9.0329	74
9.0403	75
9.0477	68
9.0551	76
9.0625	95
9.0699	86
9.0773	97
9.0847	64
9.0921	77
9.0994	74
9.1068	70
9.1142	76
9.1216	75
9.1290	85
9.1364	74
9.1438	79
9.1512	83
9.1586	73
9.1660	67
9.1734	74
9.1808	77
9.1882	88
9.1956	69
9.2030	71
9.2104	64
9.2178	68
9.2252	71
9.2326	69
9.2400	62
9.2474	59
9.2548	67
9.2621	68
9.2695	67
9.2769	70
9.2843	57
9.2917	86
9.2991	64
9.3065	67
9.3139	89
9.3213	72
9.3287	62
9.3361	57
9.3435	71
9.3509	52
9.3583	68
9.3657	61
9.3731	78
9.3805	74
9.3879	60
9.3953	54
9.4027	56
9.4101	59
9.4174	65
9.4248	52
9.4322	80
9.4396	59
9.4470	42
9.4544	60
9.4618	63
9.4692	59
9.4766	54
9.4840	62
9.4914	52
9.4988	72
9.5062	53
9.5136	59
9.5210	62
9.5284	52
9.5358	53
9.5432	63
9.5506	66
9.5580	70
9.5654	47
9.5727	48
9.5801	58
9.5875	47
9.5949	59
9.6023	51
9.6097	47
9.6171	54
9.6245	69
9.6319	43
9.6393	49
9.6467	51
9.6541	51
9.6615	58
9.6689	64
9.6763	58
9.6837	56
9.6911	47
9.6985	62
9.7059	55
9.7133	65
9.7207	57
9.7280	56
9.7354	50
9.7428	65
9.7502	55
9.7576	52
9.7650	51
9.7724	54
9.7798	44
9.7872	64
9.7946	45
9.8020	46
9.8094	60
9.8168	50
9.8242	46
9.8316	50
9.8390	45
9.8464	39
9.8538	49
9.8612	37
9.8686	52
9.8760	62
9.8833	52
9.8907	44
9.8981	56
9.9055	56
9.9129	57
9.9203	44
9.9277	74
9.9351	54
9.9425	57
9.9499	61
9.9573	55
9.9647	55
9.9721	51
9.9795	55
9.9869	44
9.9943	52
10.0017	54
10.0091	62
10.0165	54
10.0239	42
10.0313	44
10.0386	43
10.0460	46
10.0534	37
10.0608	45
10.0682	53
10.0756	29
10.0830	51
10.0904	45
10.0978	29
10.1052	54
10.1126	54
10.1200	42
10.1274	48
10.1348	40
10.1422	39
10.1496	49
10.1570	45
10.1644	40
10.1718	36
10.1792	32
10.1866	39
10.1939	45
10.2013	56
10.2087	35
10.2161	38
10.2235	46
10.2309	35
10.2383	38
10.2457	33
10.2531	34
10.2605	39
10.2679	47
10.2753	51
10.2827	38
10.2901	60
10.2975	46
10.3049	48
10.3123	48
10.3197	47
10.3271	51
10.3345	47
10.3419	42
10.3492	54
10.3566	43
10.3640	37
10.3714	36
10.3788	38
10.3862	41
10.3936	43
10.4010	53
10.4084	52
10.4158	54
10.4232	34
10.4306	52
10.4380	47
10.4454	44
10.4528	40
10.4602	48
10.4676	52
10.4750	48
10.4824	41
10.4898	31
10.4972	38
10.5045	37
10.5119	43
10.5193	45
10.5267	51
10.5341	47
10.5415	47
10.5489	45
10.5563	45
10.5637	47
10.5711	37
10.5785	40
10.5859	37
10.5933	48
10.6007	39
10.6081	37
10.6155	35
10.6229	38
10.6303	35
10.6377	36
10.6451	32
10.6525	35
10.6598	50
10.6672	26
10.6746	40
10.6820	44
10.6894	54
10.6968	36
10.7042	45
10.7116	61
10.7190	39
10.7264	45
10.7338	50
10.7412	33
10.7486	59
10.7560	35
10.7634	46
10.7708	41
10.7782	32
10.7856	37
10.7930	38
10.8004	37
10.8078	46
10.8151	44
10.8225	38
10.8299	34
10.8373	39
10.8447	36
10.8521	48
10.8595	31
10.8669	43
10.8743	35
10.8817	43
10.8891	35
10.8965	42
10.9039	44
10.9113	34
10.9187	35
10.9261	27
10.9335	36
10.9409	30
10.9483	41
10.9557	43
10.9631	40
10.9705	47
10.9778	39
10.9852	33
10.9926	37
11.0000	24
11.0074	44
11.0148	33
11.0222	33
11.0296	31
11.0370	37
11.0444	26
11.0518	43
11.0592	31
11.0666	40
11.0740	41
11.0814	44
11.0888	39
11.0962	36
11.1036	41
11.1110	36
11.1184	42
11.1258	23
11.1331	34
11.1405	43
11.1479	32
11.1553	47
11.1627	32
11.1701	44
11.1775	45
11.1849	47
11.1923	37
11.1997	46
11.2071	45
11.2145	43
11.2219	39
11.2293	35
11.2367	33
11.2441	47
11.2515	38
11.2589	34
11.2663	32
11.2737	30
11.2811	48
11.2884	35
11.2958	34
11.3032	41
11.3106	34
11.3180	39
11.3254	49
11.3328	41
11.3402	38
11.3476	40
11.3550	41
11.3624	42
11.3698	52
11.3772	40
11.3846	44
11.3920	51
11.3994	49
11.4068	44
11.4142	48
11.4216	50
11.4290	38
11.4364	30
11.4437	42
11.4511	38
11.4585	46
11.4659	47
11.4733	31
11.4807	42
11.4881	45
11.4955	48
11.5029	58
11.5103	43
11.5177	43
11.5251	49
11.5325	65
11.5399	53
11.5473	63
11.5547	48
11.5621	51
11.5695	74
11.5769	69
11.5843	77
11.5917	80
11.5990	85
11.6064	99
11.6138	92
11.6212	91
11.6286	124
11.6360	118
11.6434	153
11.6508	171
11.6582	172
11.6656	261
11.6730	267
11.6804	374
11.6878	441
11.6952	543
11.7026	702
11.7100	891
11.7174	1002
11.7248	1049
11.7322	1049
11.7396	1038
11.7470	954
11.7543	897
11.7617	773
11.7691	653
11.7765	561
11.7839	542
11.7913	432
11.7987	325
11.8061	311
11.8135	255
11.8209	205
11.8283	172
11.8357	130
11.8431	121
11.8505	107
11.8579	83
11.8653	78
11.8727	75
11.8801	74
11.8875	61
11.8949	59
11.9023	73
11.9096	64
11.9170	68
11.9244	69
11.9318	67
11.9392	54
11.9466	65
11.9540	89
11.9614	81
11.9688	93
11.9762	62
11.9836	61
11.9910	82
11.9984	65
12.0058	81
12.0132	93
12.0206	77
12.0280	94
12.0354	69
12.0428	87
12.0502	63
12.0576	95
12.0649	64
12.0723	66
12.0797	70
12.0871	74
12.0945	62
12.1019	86
12.1093	94
12.1167	77
12.1241	89
12.1315	83
12.1389	67
12.1463	94
12.1537	67
12.1611	79
12.1685	66
12.1759	82
12.1833	80
12.1907	100
12.1981	85
12.2055	109
12.2129	100
12.2202	106
12.2276	128
12.2350	128
12.2424	120
12.2498	143
12.2572	174
12.2646	209
12.2720	227
12.2794	226
12.2868	264
12.2942	313
12.3016	416
12.3090	513
12.3164	674
12.3238	927
12.3312	1263
12.3386	1912
12.3460	2654
12.3534	3590
12.3608	4342
12.3682	4803
12.3755	4785
12.3829	4307
12.3903	3869
12.3977	3348
12.4051	2817
12.4125	2227
12.4199	1664
12.4273	1222
12.4347	953
12.4421	755
12.4495	636
12.4569	578
12.4643	433
12.4717	456
12.4791	377
12.4865	289
12.4939	257
12.5013	267
12.5087	237
12.5161	171
12.5235	180
12.5309	139
12.5382	158
12.5456	101
12.5530	113
12.5604	118
12.5678	91
12.5752	91
12.5826	93
12.5900	74
12.5974	91
12.6048	72
12.6122	62
12.6196	84
12.6270	73
12.6344	79
12.6418	70
12.6492	73
12.6566	85
12.6640	74
12.6714	96
12.6788	71
12.6862	70
12.6935	65
12.7009	59
12.7083	63
12.7157	58
12.7231	58
12.7305	74
12.7379	78
12.7453	62
12.7527	72
12.7601	66
12.7675	55
12.7749	72
12.7823	80
12.7897	48
12.7971	73
12.8045	59
12.8119	84
12.8193	69
12.8267	62
12.8341	65
12.8415	71
12.8488	69
12.8562	62
12.8636	71
12.8710	47
12.8784	67
12.8858	55
12.8932	54
12.9006	55
12.9080	81
12.9154	65
12.9228	61
12.9302	47
12.9376	64
12.9450	85
12.9524	56
12.9598	51
12.9672	68
12.9746	60
12.9820	63
12.9894	56
12.9968	63
13.0041	60
13.0115	64
13.0189	60
13.0263	47
13.0337	80
13.0411	60
13.0485	61
13.0559	63
13.0633	73
13.0707	64
13.0781	69
13.0855	75
13.0929	81
13.1003	72
13.1077	71
13.1151	85
13.1225	92
13.1299	83
13.1373	76
13.1447	98
13.1521	113
13.1594	111
13.1668	131
13.1742	156
13.1816	179
13.1890	186
13.1964	236
13.2038	319
13.2112	357
13.2186	426
13.2260	532
13.2334	613
13.2408	653
13.2482	710
13.2556	755
13.2630	708
13.2704	711
13.2778	637
13.2852	673
13.2926	581
13.3000	583
13.3074	459
13.3147	431
13.3221	418
13.3295	373
13.3369	360
13.3443	320
13.3517	316
13.3591	279
13.3665	219
13.3739	221
13.3813	175
13.3887	158
13.3961	162
13.4035	122
13.4109	123
13.4183	108
13.4257	89
13.4331	76
13.4405	121
13.4479	99
13.4553	110
13.4627	75
13.4700	97
13.4774	87
13.4848	70
13.4922	76
13.4996	81
13.5070	80
13.5144	94
13.5218	97
13.5292	91
13.5366	89
13.5440	83
13.5514	101
13.5588	108
13.5662	129
13.5736	108
13.5810	145
13.5884	144
13.5958	170
13.6032	164
13.6106	194
13.6180	246
13.6253	277
13.6327	347
13.6401	472
13.6475	491
13.6549	602
13.6623	733
13.6697	889
13.6771	987
13.6845	1065
13.6919	1112
13.6993	1125
13.7067	1151
13.7141	1089
13.7215	1045
13.7289	988
13.7363	981
13.7437	931
13.7511	818
13.7585	789
13.7659	697
13.7733	660
13.7806	593
13.7880	559
13.7954	506
13.8028	412
13.8102	396
13.8176	324
13.8250	258
13.8324	214
13.8398	198
13.8472	166
13.8546	158
13.8620	119
13.8694	109
13.8768	84
13.8842	86
13.8916	65
13.8990	72
13.9064	84
13.9138	79
13.9212	67
13.9286	77
13.9359	67
13.9433	71
13.9507	67
13.9581	72
13.9655	55
13.9729	64
13.9803	57
13.9877	62
13.9951	58
14.0025	58
14.0099	60
14.0173	58
14.0247	68
14.0321	51
14.0395	69
14.0469	68
14.0543	57
14.0617	65
14.0691	52
14.0765	71
14.0839	57
14.0913	45
14.0986	65
14.1060	43
14.1134	43
14.1208	61
14.1282	50
14.1356	65
14.1430	62
14.1504	47
14.1578	64
14.1652	44
14.1726	60
14.1800	60
14.1874	45
14.1948	68
14.2022	67
14.2096	60
14.2170	62
14.2244	63
14.2318	46
14.2392	54
14.2466	51
14.2539	65
14.2613	61
14.2687	54
14.2761	47
14.2835	57
14.2909	51
14.2983	62
14.3057	75
14.3131	67
14.3205	54
14.3279	62
14.3353	77
14.3427	77
14.3501	71
14.3575	64
14.3649	54
14.3723	71
14.3797	91
14.3871	106
14.3945	116
14.4019	136
14.4092	131
14.4166	143
14.4240	161
14.4314	177
14.4388	159
14.4462	187
14.4536	165
14.4610	178
14.4684	209
14.4758	178
14.4832	180
14.4906	162
14.4980	151
14.5054	144
14.5128	124
14.5202	114
14.5276	108
14.5350	102
14.5424	86
14.5498	89
14.5572	87
14.5645	65
14.5719	60
14.5793	77
14.5867	51
14.5941	57
14.6015	58
14.6089	66
14.6163	65
14.6237	48
14.6311	33
14.6385	64
14.6459	52
14.6533	54
14.6607	54
14.6681	56
14.6755	50
14.6829	53
14.6903	56
14.6977	48
14.7051	58
14.7125	43
14.7198	46
14.7272	58
14.7346	59
14.7420	41
14.7494	51
14.7568	58
14.7642	60
14.7716	61
14.7790	63
14.7864	50
14.7938	51
14.8012	61
14.8086	54
14.8160	55
14.8234	40
14.8308	50
14.8382	55
14.8456	43
14.8530	58
14.8604	55
14.8678	54
14.8751	46
14.8825	50
14.8899	49
14.8973	54
14.9047	59
14.9121	57
14.9195	50
14.9269	61
14.9343	55
14.9417	48
14.9491	31
14.9565	58
14.9639	53
14.9713	51
14.9787	51
14.9861	55
14.9935	60
15.0009	39
15.0083	43
15.0157	48
15.0231	52
15.0304	43
15.0378	46
15.0452	66
15.0526	58
15.0600	62
15.0674	53
15.0748	56
15.0822	55
15.0896	50
15.0970	44
15.1044	40
15.1118	54
15.1192	45
15.1266	56
15.1340	50
15.1414	56
15.1488	51
15.1562	47
15.1636	49
15.1710	55
15.1784	55
15.1857	43
15.1931	53
15.2005	45
15.2079	51
15.2153	54
15.2227	61
15.2301	47
15.2375	51
15.2449	51
15.2523	67
15.2597	59
15.2671	64
15.2745	50
15.2819	58
15.2893	43
15.2967	50
15.3041	47
15.3115	59
15.3189	43
15.3263	53
15.3337	60
15.3410	64
15.3484	68
15.3558	55
15.3632	50
15.3706	49
15.3780	54
15.3854	50
15.3928	46
15.4002	54
15.4076	61
15.4150	50
15.4224	56
15.4298	66
15.4372	55
15.4446	43
15.4520	52
15.4594	48
15.4668	48
15.4742	51
15.4816	46
15.4890	59
15.4963	58
15.5037	56
15.5111	76
15.5185	78
15.5259	77
15.5333	96
15.5407	91
15.5481	73
15.5555	78
15.5629	93
15.5703	101
15.5777	104
15.5851	100
15.5925	124
15.5999	103
15.6073	92
15.6147	114
15.6221	103
15.6295	86
15.6369	81
15.6443	89
15.6516	87
15.6590	80
15.6664	68
15.6738	83
15.6812	66
15.6886	86
15.6960	47
15.7034	55
15.7108	47
15.7182	48
15.7256	47
15.7330	53
15.7404	48
15.7478	46
15.7552	50
15.7626	49
15.7700	35
15.7774	44
15.7848	41
15.7922	43
15.7996	49
15.8070	47
15.8143	48
15.8217	47
15.8291	40
15.8365	47
15.8439	37
15.8513	49
15.8587	39
15.8661	47
15.8735	42
15.8809	39
15.8883	47
15.8957	52
15.9031	48
15.9105	48
15.9179	47
15.9253	41
15.9327	44
15.9401	39
15.9475	54
15.9549	52
15.9623	42
15.9696	46
15.9770	51
15.9844	52
15.9918	51
15.9992	46
16.0066	52
16.0140	44
16.0214	54
16.0288	40
16.0362	49
16.0436	45
16.0510	50
16.0584	46
16.0658	50
16.0732	50
16.0806	40
16.0880	51
16.0954	44
16.1028	36
16.1102	54
16.1176	48
16.1249	58
16.1323	54
16.1397	49
16.1471	55
16.1545	55
16.1619	38
16.1693	59
16.1767	45
16.1841	52
16.1915	43
16.1989	49
16.2063	59
16.2137	58
16.2211	53
16.2285	43
16.2359	41
16.2433	53
16.2507	50
16.2581	37
16.2655	44
16.2729	49
16.2802	50
16.2876	52
16.2950	47
16.3024	55
16.3098	44
16.3172	52
16.3246	60
16.3320	41
16.3394	47
16.3468	42
16.3542	70
16.3616	46
16.3690	51
16.3764	50
16.3838	47
16.3912	55
16.3986	54
16.4060	56
16.4134	43
16.4208	50
16.4282	62
16.4355	70
16.4429	61
16.4503	73
16.4577	64
16.4651	66
16.4725	63
16.4799	63
16.4873	82
16.4947	67
16.5021	59
16.5095	55
16.5169	72
16.5243	68
16.5317	59
16.5391	63
16.5465	89
16.5539	71
16.5613	70
16.5687	72
16.5761	53
16.5835	55
16.5908	58
16.5982	77
16.6056	54
16.6130	67
16.6204	69
16.6278	63
16.6352	77
16.6426	70
16.6500	69
16.6574	78
16.6648	75
16.6722	82
16.6796	66
16.6870	77
16.6944	101
16.7018	88
16.7092	92
16.7166	78
16.7240	86
16.7314	105
16.7388	99
16.7461	111
16.7535	146
16.7609	157
16.7683	174
16.7757	206
16.7831	218
16.7905	258
16.7979	273
16.8053	309
16.8127	326
16.8201	395
16.8275	446
16.8349	496
16.8423	546
16.8497	563
16.8571	598
16.8645	624
16.8719	602
16.8793	573
16.8867	580
16.8941	529
16.9014	565
16.9088	519
16.9162	490
16.9236	408
16.9310	410
16.9384	413
16.9458	401
16.9532	355
16.9606	395
16.9680	341
16.9754	460
16.9828	509
16.9902	647
16.9976	902
17.0050	1330
17.0124	1816
17.0198	2503
17.0272	2900
17.0346	3077
17.0420	3000
17.0494	2758
17.0567	2430
17.0641	2277
17.0715	2158
17.0789	1964
17.0863	1747
17.0937	1432
17.1011	1026
17.1085	897
17.1159	647
17.1233	514
17.1307	506
17.1381	425
17.1455	341
17.1529	291
17.1603	282
17.1677	253
17.1751	194
17.1825	218
17.1899	189
17.1973	146
17.2047	140
17.2120	143
17.2194	113
17.2268	121
17.2342	108
17.2416	103
17.2490	76
17.2564	91
17.2638	94
17.2712	77
17.2786	90
17.2860	101
17.2934	94
17.3008	81
17.3082	94
17.3156	99
17.3230	69
17.3304	91
17.3378	71
17.3452	66
17.3526	90
17.3600	66
17.3674	92
17.3747	75
17.3821	77
17.3895	85
17.3969	68
17.4043	58
17.4117	76
17.4191	67
17.4265	68
17.4339	79
17.4413	69
17.4487	78
17.4561	70
17.4635	69
17.4709	81
17.4783	81
17.4857	66
17.4931	68
17.5005	78
17.5079	86
17.5153	91
17.5227	62
17.5300	69
17.5374	93
17.5448	79
17.5522	70
17.5596	79
17.5670	76
17.5744	70
17.5818	72
17.5892	88
17.5966	71
17.6040	94
17.6114	88
17.6188	74
17.6262	73
17.6336	83
17.6410	101
17.6484	70
17.6558	76
17.6632	93
17.6706	79
17.6780	83
17.6853	93
17.6927	94
17.7001	96
17.7075	81
17.7149	80
17.7223	99
17.7297	94
17.7371	121
17.7445	116
17.7519	125
17.7593	125
17.7667	134
17.7741	159
17.7815	210
17.7889	242
17.7963	259
17.8037	321
17.8111	383
17.8185	389
17.8259	432
17.8333	515
17.8406	555
17.8480	651
17.8554	711
17.8628	713
17.8702	781
17.8776	790
17.8850	874
17.8924	838
17.8998	852
17.9072	816
17.9146	817
17.9220	715
17.9294	719
17.9368	692
17.9442	616
17.9516	555
17.9590	504
17.9664	435
17.9738	382
17.9812	323
17.9886	279
17.9959	262
18.0033	223
18.0107	161
18.0181	160
18.0255	148
18.0329	131
18.0403	126
18.0477	109
18.0551	106
18.0625	96
18.0699	114
18.0773	95
18.0847	110
18.0921	82
18.0995	72
18.1069	82
18.1143	82
18.1217	80
18.1291	82
18.1365	68
18.1439	97
18.1512	90
18.1586	76
18.1660	74
18.1734	79
18.1808	93
18.1882	81
18.1956	91
18.2030	72
18.2104	96
18.2178	91
18.2252	80
18.2326	92
18.2400	69
18.2474	68
18.2548	72
18.2622	86
18.2696	88
18.2770	68
18.2844	76
18.2918	74
18.2992	79
18.3065	82
18.3139	85
18.3213	78
18.3287	91
18.3361	74
18.3435	73
18.3509	84
18.3583	83
18.3657	73
18.3731	94
18.3805	94
18.3879	80
18.3953	91
18.4027	92
18.4101	95
18.4175	90
18.4249	93
18.4323	89
18.4397	106
18.4471	99
18.4545	121
18.4618	115
18.4692	101
18.4766	127
18.4840	128
18.4914	137
18.4988	180
18.5062	225
18.5136	209
18.5210	279
18.5284	346
18.5358	385
18.5432	473
18.5506	556
18.5580	653
18.5654	765
18.5728	856
18.5802	998
18.5876	1086
18.5950	1148
18.6024	1189
18.6098	1201
18.6171	1243
18.6245	1285
18.6319	1320
18.6393	1291
18.6467	1259
18.6541	1179
18.6615	1100
18.6689	990
18.6763	957
18.6837	884
18.6911	730
18.6985	670
18.7059	608
18.7133	518
18.7207	450
18.7281	424
18.7355	359
18.7429	266
18.7503	242
18.7577	244
18.7651	196
18.7724	191
18.7798	134
18.7872	146
18.7946	140
18.8020	110
18.8094	124
18.8168	97
18.8242	111
18.8316	98
18.8390	93
18.8464	97
18.8538	86
18.8612	66
18.8686	92
18.8760	91
18.8834	82
18.8908	83
18.8982	88
18.9056	77
18.9130	69
18.9204	74
18.9278	85
18.9351	83
18.9425	96
18.9499	81
18.9573	80
18.9647	82
18.9721	82
18.9795	82
18.9869	66
18.9943	91
19.0017	73
19.0091	84
19.0165	74
19.0239	90
19.0313	91
19.0387	95
19.0461	93
19.0535	70
19.0609	76
19.0683	84
19.0757	83
19.0831	73
19.0904	109
19.0978	72
19.1052	67
19.1126	74
19.1200	77
19.1274	68
19.1348	73
19.1422	58
19.1496	71
19.1570	71
19.1644	70
19.1718	73
19.1792	53
19.1866	63
19.1940	73
19.2014	79
19.2088	70
19.2162	69
19.2236	86
19.2310	78
19.2384	62
19.2457	71
19.2531	68
19.2605	66
19.2679	73
19.2753	71
19.2827	64
19.2901	63
19.2975	63
19.3049	78
19.3123	77
19.3197	57
19.3271	77
19.3345	68
19.3419	72
19.3493	61
19.3567	75
19.3641	76
19.3715	77
19.3789	93
19.3863	85
19.3937	89
19.4010	96
19.4084	81
19.4158	103
19.4232	113
19.4306	146
19.4380	154
19.4454	161
19.4528	157
19.4602	175
19.4676	196
19.4750	200
19.4824	188
19.4898	193
19.4972	189
19.5046	192
19.5120	211
19.5194	182
19.5268	195
19.5342	185
19.5416	194
19.5490	144
19.5563	145
19.5637	130
19.5711	133
19.5785	120
19.5859	97
19.5933	100
19.6007	113
19.6081	97
19.6155	93
19.6229	82
19.6303	91
19.6377	88
19.6451	57
19.6525	78
19.6599	86
19.6673	83
19.6747	71
19.6821	71
19.6895	82
19.6969	87
19.7043	74
19.7116	68
19.7190	84
19.7264	66
19.7338	77
19.7412	73
19.7486	66
19.7560	64
19.7634	55
19.7708	66
19.7782	58
19.7856	82
19.7930	73
19.8004	68
19.8078	84
19.8152	64
19.8226	71
19.8300	78
19.8374	79
19.8448	67
19.8522	78
19.8596	73
19.8669	85
19.8743	80
19.8817	95
19.8891	67
19.8965	61
19.9039	56
19.9113	66
19.9187	70
19.9261	69
19.9335	85
19.9409	73
19.9483	80
19.9557	71
19.9631	83
19.9705	73
19.9779	86
19.9853	62
19.9927	68
20.0001	70
20.0075	62
20.0149	68
20.0222	66
20.0296	78
20.0370	67
20.0444	75
20.0518	75
20.0592	64
20.0666	81
20.0740	76
20.0814	61
20.0888	61
20.0962	66
20.1036	74
20.1110	75
20.1184	65
20.1258	86
20.1332	68
20.1406	75
20.1480	94
20.1554	69
20.1628	65
20.1702	86
20.1775	94
20.1849	72
20.1923	81
20.1997	69
20.2071	80
20.2145	72
20.2219	81
20.2293	79
20.2367	68
20.2441	66
20.2515	80
20.2589	69
20.2663	79
20.2737	91
20.2811	73
20.2885	80
20.2959	74
20.3033	80
20.3107	74
20.3181	96
20.3255	81
20.3328	76
20.3402	81
20.3476	87
20.3550	90
20.3624	86
20.3698	84
20.3772	92
20.3846	105
20.3920	100
20.3994	97
20.4068	99
20.4142	108
20.4216	110
20.4290	119
20.4364	140
20.4438	139
20.4512	171
20.4586	174
20.4660	238
20.4734	251
20.4808	259
20.4882	349
20.4955	396
20.5029	519
20.5103	612
20.5177	700
20.5251	749
20.5325	889
20.5399	870
20.5473	915
20.5547	997
20.5621	1062
20.5695	1085
20.5769	1105
20.5843	1029
20.5917	1076
20.5991	1008
20.6065	994
20.6139	936
20.6213	914
20.6287	801
20.6361	793
20.6435	696
20.6508	642
20.6582	535
20.6656	488
20.6730	466
20.6804	412
20.6878	296
20.6952	297
20.7026	218
20.7100	217
20.7174	201
20.7248	179
20.7322	165
20.7396	146
20.7470	144
20.7544	125
20.7618	121
20.7692	108
20.7766	124
20.7840	112
20.7914	98
20.7988	97
20.8061	111
20.8135	112
20.8209	114
20.8283	91
20.8357	104
20.8431	111
20.8505	109
20.8579	116
20.8653	107
20.8727	96
20.8801	131
20.8875	110
20.8949	132
20.9023	124
20.9097	145
20.9171	137
20.9245	166
20.9319	180
20.9393	219
20.9467	277
20.9541	293
20.9614	274
20.9688	338
20.9762	413
20.9836	413
20.9910	421
20.9984	410
21.0058	391
21.0132	393
21.0206	357
21.0280	365
21.0354	294
21.0428	317
21.0502	325
21.0576	305
21.0650	241
21.0724	232
21.0798	192
21.0872	173
21.0946	204
21.1020	179
21.1094	174
21.1167	147
21.1241	130
21.1315	131
21.1389	124
21.1463	129
21.1537	110
21.1611	124
21.1685	107
21.1759	106
21.1833	114
21.1907	117
21.1981	110
21.2055	104
21.2129	108
21.2203	107
21.2277	112
21.2351	108
21.2425	100
21.2499	91
21.2573	111
21.2647	118
21.2720	110
21.2794	98
21.2868	101
21.2942	110
21.3016	122
21.3090	115
21.3164	119
21.3238	111
21.3312	108
21.3386	114
21.3460	116
21.3534	109
21.3608	127
21.3682	99
21.3756	139
21.3830	116
21.3904	109
21.3978	122
21.4052	130
21.4126	147
21.4200	135
21.4273	155
21.4347	158
21.4421	181
21.4495	201
21.4569	235
21.4643	236
21.4717	304
21.4791	330
21.4865	496
21.4939	535
21.5013	630
21.5087	656
21.5161	733
21.5235	792
21.5309	724
21.5383	752
21.5457	747
21.5531	746
21.5605	752
21.5679	722
21.5753	732
21.5826	687
21.5900	626
21.5974	602
21.6048	558
21.6122	494
21.6196	482
21.6270	457
21.6344	434
21.6418	365
21.6492	337
21.6566	365
21.6640	295
21.6714	313
21.6788	347
21.6862	315
21.6936	326
21.7010	336
21.7084	316
21.7158	327
21.7232	332
21.7306	338
21.7379	345
21.7453	405
21.7527	376
21.7601	374
21.7675	434
21.7749	401
21.7823	438
21.7897	420
21.7971	428
21.8045	390
21.8119	404
21.8193	394
21.8267	343
21.8341	343
21.8415	312
21.8489	340
21.8563	334
21.8637	373
21.8711	351
21.8785	378
21.8859	444
21.8932	452
21.9006	527
21.9080	652
21.9154	814
21.9228	993
21.9302	1183
21.9376	1604
21.9450	1972
21.9524	2361
21.9598	2676
21.9672	2964
21.9746	3142
21.9820	3249
21.9894	3384
21.9968	3514
22.0042	3535
22.0116	3582
22.0190	3366
22.0264	3376
22.0338	3227
22.0412	2930
22.0485	2730
22.0559	2520
22.0633	2261
22.0707	2040
22.0781	1889
22.0855	1709
22.0929	1458
22.1003	1282
22.1077	1140
22.1151	936
22.1225	753
22.1299	677
22.1373	567
22.1447	503
22.1521	472
22.1595	393
22.1669	348
22.1743	278
22.1817	258
22.1891	216
22.1965	196
22.2039	197
22.2112	152
22.2186	174
22.2260	156
22.2334	161
22.2408	147
22.2482	132
22.2556	145
22.2630	138
22.2704	136
22.2778	114
22.2852	133
22.2926	126
22.3000	120
22.3074	137
22.3148	124
22.3222	145
22.3296	144
22.3370	116
22.3444	132
22.3518	117
22.3592	129
22.3665	121
22.3739	111
22.3813	134
22.3887	126
22.3961	114
22.4035	102
22.4109	110
22.4183	125
22.4257	102
22.4331	116
22.4405	131
22.4479	111
22.4553	130
22.4627	123
22.4701	109
22.4775	99
22.4849	113
22.4923	106
22.4997	113
22.5071	100
22.5145	107
22.5218	107
22.5292	97
22.5366	111
22.5440	123
22.5514	109
22.5588	118
22.5662	99
22.5736	115
22.5810	117
22.5884	113
22.5958	108
22.6032	103
22.6106	123
22.6180	106
22.6254	108
22.6328	103
22.6402	120
22.6476	126
22.6550	125
22.6624	122
22.6698	110
22.6771	125
22.6845	114
22.6919	121
22.6993	151
22.7067	147
22.7141	163
22.7215	171
22.7289	216
22.7363	226
22.7437	299
22.7511	335
22.7585	325
22.7659	407
22.7733	417
22.7807	457
22.7881	504
22.7955	459
22.8029	501
22.8103	417
22.8177	483
22.8251	453
22.8324	439
22.8398	427
22.8472	378
22.8546	388
22.8620	370
22.8694	369
22.8768	309
22.8842	246
22.8916	292
22.8990	223
22.9064	238
22.9138	210
22.9212	184
22.9286	166
22.9360	156
22.9434	168
22.9508	149
22.9582	138
22.9656	126
22.9730	121
22.9804	119
22.9877	126
22.9951	112
23.0025	100
23.0099	123
23.0173	113
23.0247	98
23.0321	126
23.0395	104
23.0469	98
23.0543	97
23.0617	92
23.0691	94
23.0765	101
23.0839	96
23.0913	104
23.0987	95
23.1061	99
23.1135	114
23.1209	112
23.1283	113
23.1357	102
23.1430	103
23.1504	98
23.1578	99
23.1652	86
23.1726	87
23.1800	102
23.1874	104
23.1948	104
23.2022	98
23.2096	95
23.2170	108
23.2244	86
23.2318	86
23.2392	101
23.2466	89
23.2540	105
23.2614	116
23.2688	94
23.2762	84
23.2836	87
23.2910	104
23.2983	111
23.3057	98
23.3131	103
23.3205	92
23.3279	114
23.3353	82
23.3427	90
23.3501	104
23.3575	91
23.3649	105
23.3723	118
23.3797	110
23.3871	121
23.3945	103
23.4019	120
23.4093	116
23.4167	125
23.4241	158
23.4315	144
23.4389	179
23.4463	184
23.4536	289
23.4610	301
23.4684	354
23.4758	368
23.4832	367
23.4906	415
23.4980	387
23.5054	354
23.5128	347
23.5202	307
23.5276	319
23.5350	324
23.5424	330
23.5498	343
23.5572	292
23.5646	273
23.5720	253
23.5794	239
23.5868	221
23.5942	201
23.6016	169
23.6089	172
23.6163	180
23.6237	155
23.6311	143
23.6385	133
23.6459	125
23.6533	133
23.6607	101
23.6681	103
23.6755	107
23.6829	118
23.6903	102
23.6977	98
23.7051	84
23.7125	102
23.7199	103
23.7273	109
23.7347	104
23.7421	114
23.7495	103
23.7569	107
23.7643	83
23.7716	106
23.7790	111
23.7864	78
23.7938	109
23.8012	101
23.8086	116
23.8160	96
23.8234	105
23.8308	90
23.8382	103
23.8456	108
23.8530	92
23.8604	132
23.8678	96
23.8752	121
23.8826	118
23.8900	117
23.8974	152
23.9048	153
23.9122	148
23.9196	112
23.9269	172
23.9343	181
23.9417	209
23.9491	256
23.9565	277
23.9639	304
23.9713	379
23.9787	446
23.9861	496
23.9935	544
24.0009	571
24.0083	617
24.0157	645
24.0231	716
24.0305	719
24.0379	744
24.0453	701
24.0527	744
24.0601	710
24.0675	694
24.0749	654
24.0822	683
24.0896	641
24.0970	592
24.1044	512
24.1118	487
24.1192	442
24.1266	364
24.1340	356
24.1414	306
24.1488	311
24.1562	277
24.1636	246
24.1710	194
24.1784	201
24.1858	156
24.1932	165
24.2006	161
24.2080	142
24.2154	148
24.2228	140
24.2302	121
24.2375	133
24.2449	131
24.2523	157
24.2597	134
24.2671	157
24.2745	167
24.2819	172
24.2893	206
24.2967	236
24.3041	230
24.3115	216
24.3189	240
24.3263	254
24.3337	243
24.3411	240
24.3485	278
24.3559	311
24.3633	341
24.3707	349
24.3781	397
24.3855	446
24.3928	475
24.4002	526
24.4076	549
24.4150	574
24.4224	550
24.4298	585
24.4372	604
24.4446	573
24.4520	605
24.4594	608
24.4668	590
24.4742	593
24.4816	592
24.4890	518
24.4964	470
24.5038	461
24.5112	384
24.5186	344
24.5260	345
24.5334	294
24.5408	310
24.5481	253
24.5555	247
24.5629	219
24.5703	197
24.5777	164
24.5851	149
24.5925	122
24.5999	144
24.6073	143
24.6147	109
24.6221	139
24.6295	110
24.6369	148
24.6443	99
24.6517	111
24.6591	111
24.6665	124
24.6739	122
24.6813	118
24.6887	144
24.6961	119
24.7034	136
24.7108	147
24.7182	135
24.7256	144
24.7330	182
24.7404	175
24.7478	232
24.7552	251
24.7626	311
24.7700	409
24.7774	464
24.7848	482
24.7922	540
24.7996	551
24.8070	514
24.8144	469
24.8218	403
24.8292	364
24.8366	395
24.8440	372
24.8514	400
24.8587	399
24.8661	352
24.8735	309
24.8809	264
24.8883	245
24.8957	213
24.9031	183
24.9105	167
24.9179	167
24.9253	152
24.9327	153
24.9401	129
24.9475	153
24.9549	157
24.9623	131
24.9697	135
24.9771	147
24.9845	130
24.9919	123
24.9993	113
25.0067	124
25.0140	123
25.0214	146
25.0288	114
25.0362	122
25.0436	119
25.0510	123
25.0584	120
25.0658	135
25.0732	118
25.0806	117
25.0880	111
25.0954	98
25.1028	104
25.1102	112
25.1176	114
25.1250	104
25.1324	111
25.1398	112
25.1472	87
25.1546	96
25.1620	131
25.1693	113
25.1767	115
25.1841	98
25.1915	105
25.1989	96
25.2063	113
25.2137	126
25.2211	118
25.2285	105
25.2359	124
25.2433	110
25.2507	124
25.2581	112
25.2655	111
25.2729	122
25.2803	117
25.2877	110
25.2951	123
25.3025	126
25.3099	107
25.3173	111
25.3247	119
25.3320	105
25.3394	127
25.3468	130
25.3542	122
25.3616	130
25.3690	139
25.3764	129
25.3838	121
25.3912	152
25.3986	143
25.4060	160
25.4134	165
25.4208	204
25.4282	225
25.4356	233
25.4430	262
25.4504	322
25.4578	377
25.4652	450
25.4726	508
25.4800	544
25.4873	651
25.4947	662
25.5021	670
25.5095	753
25.5169	707
25.5243	756
25.5317	754
25.5391	761
25.5465	845
25.5539	821
25.5613	902
25.5687	895
25.5761	958
25.5835	984
25.5909	1149
25.5983	1331
25.6057	1651
25.6131	1889
25.6205	2087
25.6279	2087
25.6353	1971
25.6426	1662
25.6500	1457
25.6574	1258
25.6648	1175
25.6722	1164
25.6796	1279
25.6870	1266
25.6944	1230
25.7018	1130
25.7092	932
25.7166	755
25.7240	564
25.7314	448
25.7388	420
25.7462	371
25.7536	341
25.7610	292
25.7684	280
25.7758	255
25.7832	228
25.7906	210
25.7979	246
25.8053	218
25.8127	234
25.8201	211
25.8275	207
25.8349	246
25.8423	281
25.8497	272
25.8571	296
25.8645	343
25.8719	347
25.8793	375
25.8867	384
25.8941	346
25.9015	375
25.9089	384
25.9163	353
25.9237	327
25.9311	341
25.9385	341
25.9459	355
25.9532	303
25.9606	293
25.9680	285
25.9754	258
25.9828	263
25.9902	231
25.9976	223
26.0050	199
26.0124	186
26.0198	165
26.0272	150
26.0346	188
26.0420	142
26.0494	129
26.0568	122
26.0642	142
26.0716	132
26.0790	97
26.0864	135
26.0938	116
26.1012	128
26.1085	120
26.1159	96
26.1233	126
26.1307	114
26.1381	111
26.1455	123
26.1529	118
26.1603	121
26.1677	123
26.1751	120
26.1825	123
26.1899	117
26.1973	110
26.2047	118
26.2121	139
26.2195	97
26.2269	128
26.2343	123
26.2417	122
26.2491	124
26.2565	103
26.2638	105
26.2712	124
26.2786	114
26.2860	116
26.2934	112
26.3008	125
26.3082	120
26.3156	111
26.3230	141
26.3304	128
26.3378	118
26.3452	145
26.3526	144
26.3600	143
26.3674	139
26.3748	142
26.3822	142
26.3896	162
26.3970	161
26.4044	178
26.4118	171
26.4191	165
26.4265	193
26.4339	227
26.4413	259
26.4487	261
26.4561	290
26.4635	370
26.4709	424
26.4783	450
26.4857	501
26.4931	642
26.5005	735
26.5079	859
26.5153	959
26.5227	1061
26.5301	1227
26.5375	1268
26.5449	1331
26.5523	1344
26.5597	1421
26.5671	1486
26.5744	1456
26.5818	1451
26.5892	1538
26.5966	1423
26.6040	1385
26.6114	1308
26.6188	1241
26.6262	1137
26.6336	1057
26.6410	1021
26.6484	918
26.6558	832
26.6632	737
26.6706	659
26.6780	586
26.6854	503
26.6928	446
26.7002	395
26.7076	349
26.7150	325
26.7224	279
26.7297	264
26.7371	254
26.7445	195
26.7519	185
26.7593	178
26.7667	157
26.7741	163
26.7815	123
26.7889	183
26.7963	140
26.8037	120
26.8111	136
26.8185	116
26.8259	142
26.8333	149
26.8407	133
26.8481	127
26.8555	127
26.8629	90
26.8703	118
26.8777	113
26.8850	112
26.8924	114
26.8998	108
26.9072	105
26.9146	121
26.9220	96
26.9294	116
26.9368	106
26.9442	108
26.9516	100
26.9590	94
26.9664	96
26.9738	117
26.9812	104
26.9886	108
26.9960	118
27.0034	126
27.0108	116
27.0182	106
27.0256	95
27.0330	104
27.0404	95
27.0477	128
27.0551	114
27.0625	113
27.0699	93
27.0773	80
27.0847	115
27.0921	115
27.0995	127
27.1069	103
27.1143	95
27.1217	107
27.1291	99
27.1365	96
27.1439	112
27.1513	121
27.1587	89
27.1661	121
27.1735	105
27.1809	115
27.1883	113
27.1957	113
27.2030	118
27.2104	85
27.2178	102
27.2252	100
27.2326	104
27.2400	92
27.2474	86
27.2548	102
27.2622	137
27.2696	121
27.2770	100
27.2844	111
27.2918	105
27.2992	129
27.3066	110
27.3140	119
27.3214	128
27.3288	135
27.3362	117
27.3436	115
27.3510	134
27.3583	161
27.3657	150
27.3731	155
27.3805	156
27.3879	158
27.3953	199
27.4027	208
27.4101	255
27.4175	265
27.4249	279
27.4323	310
27.4397	388
27.4471	444
27.4545	466
27.4619	545
27.4693	594
27.4767	622
27.4841	694
27.4915	719
27.4989	699
27.5063	728
27.5136	739
27.5210	723
27.5284	723
27.5358	737
27.5432	762
27.5506	695
27.5580	735
27.5654	687
27.5728	596
27.5802	597
27.5876	581
27.5950	536
27.6024	422
27.6098	424
27.6172	412
27.6246	366
27.6320	351
27.6394	314
27.6468	356
27.6542	271
27.6616	256
27.6689	216
27.6763	237
27.6837	205
27.6911	176
27.6985	183
27.7059	153
27.7133	164
27.7207	148
27.7281	143
27.7355	138
27.7429	129
27.7503	153
27.7577	129
27.7651	152
27.7725	153
27.7799	123
27.7873	126
27.7947	126
27.8021	112
27.8095	125
27.8169	92
27.8242	110
27.8316	114
27.8390	91
27.8464	103
27.8538	115
27.8612	116
27.8686	98
27.8760	115
27.8834	96
27.8908	105
27.8982	103
27.9056	98
27.9130	113
27.9204	115
27.9278	96
27.9352	95
27.9426	107
27.9500	97
27.9574	104
27.9648	91
27.9722	111
27.9795	101
27.9869	97
27.9943	102
28.0017	101
28.0091	96
28.0165	104
28.0239	95
28.0313	102
28.0387	100
28.0461	97
28.0535	96
28.0609	88
28.0683	95
28.0757	109
28.0831	91
28.0905	75
28.0979	96
28.1053	105
28.1127	99
28.1201	99
28.1275	89
28.1348	106
28.1422	94
28.1496	101
28.1570	107
28.1644	99
28.1718	128
28.1792	103
28.1866	99
28.1940	88
28.2014	97
28.2088	112
28.2162	96
28.2236	110
28.2310	96
28.2384	94
28.2458	129
28.2532	98
28.2606	97
28.2680	96
28.2754	91
28.2828	115
28.2901	92
28.2975	110
28.3049	100
28.3123	95
28.3197	96
28.3271	108
28.3345	111
28.3419	138
28.3493	134
28.3567	123
28.3641	115
28.3715	121
28.3789	140
28.3863	168
28.3937	172
28.4011	193
28.4085	211
28.4159	275
28.4233	304
28.4307	310
28.4381	368
28.4454	416
28.4528	392
28.4602	439
28.4676	510
28.4750	550
28.4824	503
28.4898	514
28.4972	542
28.5046	580
28.5120	532
28.5194	504
28.5268	515
28.5342	500
28.5416	502
28.5490	440
28.5564	459
28.5638	414
28.5712	420
28.5786	342
28.5860	339
28.5934	322
28.6008	279
28.6081	279
28.6155	227
28.6229	213
28.6303	222
28.6377	194
28.6451	179
28.6525	158
28.6599	138
28.6673	136
28.6747	130
28.6821	130
28.6895	125
28.6969	122
28.7043	114
28.7117	106
28.7191	95
28.7265	95
28.7339	103
28.7413	97
28.7487	106
28.7561	101
28.7634	79
28.7708	101
28.7782	90
28.7856	116
28.7930	105
28.8004	101
28.8078	94
28.8152	123
28.8226	92
28.8300	109
28.8374	104
28.8448	112
28.8522	108
28.8596	79
28.8670	113
28.8744	118
28.8818	123
28.8892	117
28.8966	151
28.9040	147
28.9114	129
28.9187	127
28.9261	170
28.9335	144
28.9409	173
28.9483	160
28.9557	145
28.9631	186
28.9705	186
28.9779	208
28.9853	207
28.9927	252
29.0001	273
29.0075	272
29.0149	283
29.0223	279
29.0297	304
29.0371	332
29.0445	360
29.0519	373
29.0593	324
29.0667	356
29.0740	355
29.0814	338
29.0888	347
29.0962	322
29.1036	288
29.1110	277
29.1184	288
29.1258	283
29.1332	246
29.1406	229
29.1480	234
29.1554	185
29.1628	163
29.1702	169
29.1776	166
29.1850	153
29.1924	146
29.1998	105
29.2072	112
29.2146	109
29.2220	134
29.2293	101
29.2367	106
29.2441	101
29.2515	90
29.2589	95
29.2663	86
29.2737	104
29.2811	105
29.2885	106
29.2959	84
29.3033	94
29.3107	70
29.3181	82
29.3255	80
29.3329	97
29.3403	79
29.3477	75
29.3551	87
29.3625	99
29.3699	81
29.3773	86
29.3846	108
29.3920	90
29.3994	90
29.4068	77
29.4142	70
29.4216	90
29.4290	89
29.4364	89
29.4438	98
29.4512	91
29.4586	92
29.4660	85
29.4734	78
29.4808	85
29.4882	97
29.4956	88
29.5030	94
29.5104	92
29.5178	79
29.5252	60
29.5326	88
29.5399	72
29.5473	99
29.5547	85
29.5621	92
29.5695	115
29.5769	99
29.5843	96
29.5917	102
29.5991	114
29.6065	94
29.6139	85
29.6213	107
29.6287	94
29.6361	105
29.6435	111
29.6509	101
29.6583	112
29.6657	101
29.6731	100
29.6805	112
29.6879	89
29.6952	84
29.7026	82
29.7100	93
29.7174	88
29.7248	76
29.7322	80
29.7396	77
29.7470	93
29.7544	75
29.7618	91
29.7692	65
29.7766	96
29.7840	78
29.7914	76
29.7988	71
29.8062	77
29.8136	83
29.8210	84
29.8284	90
29.8358	100
29.8432	74
29.8505	87
29.8579	82
29.8653	79
29.8727	86
29.8801	77
29.8875	91
29.8949	76
29.9023	83
29.9097	79
29.9171	85
29.9245	96
29.9319	85
29.9393	81
29.9467	88
29.9541	69
29.9615	85
29.9689	84
29.9763	83
29.9837	93
29.9911	94
29.9985	74
30.0058	82
30.0132	79
30.0206	88
30.0280	74
30.0354	76
30.0428	94
30.0502	68
30.0576	78
30.0650	77
30.0724	77
30.0798	69
30.0872	69
30.0946	72
30.1020	94
30.1094	79
30.1168	81
30.1242	82
30.1316	89
30.1390	78
30.1464	84
30.1538	71
30.1612	72
30.1685	77
30.1759	89
30.1833	71
30.1907	87
30.1981	97
30.2055	81
30.2129	83
30.2203	77
30.2277	74
30.2351	85
30.2425	83
30.2499	89
30.2573	79
30.2647	85
30.2721	85
30.2795	80
30.2869	75
30.2943	79
30.3017	92
30.3091	82
30.3165	91
30.3238	91
30.3312	82
30.3386	76
30.3460	68
30.3534	90
30.3608	72
30.3682	71
30.3756	80
30.3830	70
30.3904	78
30.3978	86
30.4052	82
30.4126	79
30.4200	101
30.4274	85
30.4348	102
30.4422	74
30.4496	86
30.4570	98
30.4644	77
30.4718	96
30.4791	108
30.4865	117
30.4939	114
30.5013	116
30.5087	106
30.5161	112
30.5235	102
30.5309	107
30.5383	127
30.5457	126
30.5531	125
30.5605	115
30.5679	120
30.5753	145
30.5827	112
30.5901	109
30.5975	140
30.6049	135
30.6123	136
30.6197	89
30.6271	125
30.6344	119
30.6418	110
30.6492	125
30.6566	124
30.6640	134
30.6714	117
30.6788	113
30.6862	128
30.6936	107
30.7010	105
30.7084	94
30.7158	112
30.7232	123
30.7306	100
30.7380	90
30.7454	131
30.7528	95
30.7602	97
30.7676	94
30.7750	104
30.7824	118
30.7897	82
30.7971	94
30.8045	84
30.8119	77
30.8193	110
30.8267	85
30.8341	91
30.8415	78
30.8489	67
30.8563	85
30.8637	76
30.8711	83
30.8785	65
30.8859	84
30.8933	84
30.9007	96
30.9081	65
30.9155	78
30.9229	67
30.9303	71
30.9377	76
30.9450	73
30.9524	72
30.9598	86
30.9672	73
30.9746	63
30.9820	81
30.9894	71
30.9968	80
31.0042	65
31.0116	78
31.0190	86
31.0264	77
31.0338	95
31.0412	63
31.0486	88
31.0560	58
31.0634	81
31.0708	71
31.0782	83
31.0856	60
31.0930	88
31.1003	70
31.1077	72
31.1151	82
31.1225	72
31.1299	88
31.1373	78
31.1447	84
31.1521	48
31.1595	76
31.1669	92
31.1743	57
31.1817	88
31.1891	72
31.1965	66
31.2039	94
31.2113	84
31.2187	83
31.2261	76
31.2335	79
31.2409	77
31.2483	86
31.2556	93
31.2630	89
31.2704	81
31.2778	87
31.2852	89
31.2926	83
31.3000	83
31.3074	86
31.3148	89
31.3222	75
31.3296	107
31.3370	95
31.3444	78
31.3518	106
31.3592	116
31.3666	113
31.3740	106
31.3814	115
31.3888	133
31.3962	126
31.4036	144
31.4109	152
31.4183	190
31.4257	152
31.4331	179
31.4405	180
31.4479	224
31.4553	185
31.4627	184
31.4701	211
31.4775	195
31.4849	213
31.4923	222
31.4997	190
31.5071	237
31.5145	226
31.5219	210
31.5293	197
31.5367	198
31.5441	193
31.5515	173
31.5589	188
31.5662	170
31.5736	179
31.5810	174
31.5884	174
31.5958	182
31.6032	168
31.6106	185
31.6180	155
31.6254	155
31.6328	165
31.6402	148
31.6476	153
31.6550	150
31.6624	140
31.6698	129
31.6772	148
31.6846	116
31.6920	125
31.6994	127
31.7068	136
31.7142	120
31.7215	92
31.7289	125
31.7363	102
31.7437	99
31.7511	116
31.7585	100
31.7659	83
31.7733	110
31.7807	92
31.7881	76
31.7955	102
31.8029	83
31.8103	102
31.8177	83
31.8251	84
31.8325	90
31.8399	85
31.8473	85
31.8547	84
31.8621	107
31.8695	83
31.8769	91
31.8842	83
31.8916	117
31.8990	91
31.9064	120
31.9138	116
31.9212	125
31.9286	115
31.9360	127
31.9434	113
31.9508	122
31.9582	129
31.9656	109
31.9730	119
31.9804	118
31.9878	125
31.9952	144
32.0026	117
32.0100	135
32.0174	115
32.0248	115
32.0322	118
32.0395	103
32.0469	97
32.0543	101
32.0617	103
32.0691	105
32.0765	99
32.0839	114
32.0913	98
32.0987	109
32.1061	106
32.1135	103
32.1209	88
32.1283	89
32.1357	83
32.1431	105
32.1505	75
32.1579	76
32.1653	82
32.1727	69
32.1801	81
32.1875	85
32.1948	85
32.2022	95
32.2096	83
32.2170	93
32.2244	48
32.2318	88
32.2392	66
32.2466	76
32.2540	74
32.2614	64
32.2688	70
32.2762	86
32.2836	78
32.2910	75
32.2984	84
32.3058	71
32.3132	68
32.3206	84
32.3280	79
32.3354	75
32.3428	87
32.3501	81
32.3575	63
32.3649	88
32.3723	73
32.3797	84
32.3871	88
32.3945	64
32.4019	91
32.4093	66
32.4167	68
32.4241	69
32.4315	77
32.4389	67
32.4463	55
32.4537	81
32.4611	65
32.4685	74
32.4759	77
32.4833	66
32.4907	62
32.4981	80
32.5054	78
32.5128	70
32.5202	80
32.5276	75
32.5350	75
32.5424	74
32.5498	75
32.5572	85
32.5646	76
32.5720	64
32.5794	74
32.5868	78
32.5942	81
32.6016	60
32.6090	72
32.6164	58
32.6238	73
32.6312	79
32.6386	82
32.6460	80
32.6534	79
32.6607	71
32.6681	77
32.6755	74
32.6829	76
32.6903	77
32.6977	86
32.7051	76
32.7125	75
32.7199	73
32.7273	68
32.7347	60
32.7421	80
32.7495	79
32.7569	71
32.7643	70
32.7717	64
32.7791	70
32.7865	75
32.7939	89
32.8013	80
32.8087	75
32.8160	61
32.8234	101
32.8308	83
32.8382	66
32.8456	63
32.8530	85
32.8604	77
32.8678	83
32.8752	92
32.8826	108
32.8900	100
32.8974	89
32.9048	100
32.9122	74
32.9196	89
32.9270	101
32.9344	63
32.9418	91
32.9492	88
32.9566	77
32.9640	76
32.9713	84
32.9787	96
32.9861	82
32.9935	92
33.0009	86
33.0083	87
33.0157	85
33.0231	74
33.0305	79
33.0379	93
33.0453	74
33.0527	78
33.0601	81
33.0675	76
33.0749	77
33.0823	82
33.0897	92
33.0971	84
33.1045	80
33.1119	81
33.1193	87
33.1266	73
33.1340	72
33.1414	86
33.1488	66
33.1562	86
33.1636	75
33.1710	73
33.1784	96
33.1858	77
33.1932	88
33.2006	98
33.2080	106
33.2154	91
33.2228	80
33.2302	82
33.2376	82
33.2450	77
33.2524	74
33.2598	88
33.2672	86
33.2746	85
33.2819	90
33.2893	92
33.2967	90
33.3041	85
33.3115	97
33.3189	106
33.3263	101
33.3337	98
33.3411	81
33.3485	108
33.3559	106
33.3633	106
33.3707	100
33.3781	97
33.3855	90
33.3929	101
33.4003	102
33.4077	108
33.4151	126
33.4225	127
33.4299	136
33.4373	102
33.4446	119
33.4520	126
33.4594	144
33.4668	123
33.4742	134
33.4816	153
33.4890	124
33.4964	145
33.5038	136
33.5112	159
33.5186	174
33.5260	194
33.5334	211
33.5408	186
33.5482	235
33.5556	261
33.5630	280
33.5704	280
33.5778	284
33.5852	324
33.5926	297
33.5999	312
33.6073	340
33.6147	366
33.6221	310
33.6295	323
33.6369	351
33.6443	343
33.6517	323
33.6591	331
33.6665	324
33.6739	290
33.6813	309
33.6887	274
33.6961	290
33.7035	269
33.7109	235
33.7183	229
33.7257	242
33.7331	243
33.7405	174
33.7479	176
33.7552	141
33.7626	172
33.7700	138
33.7774	117
33.7848	126
33.7922	129
33.7996	111
33.8070	114
33.8144	118
33.8218	100
33.8292	95
33.8366	102
33.8440	95
33.8514	84
33.8588	78
33.8662	94
33.8736	89
33.8810	98
33.8884	86
33.8958	93
33.9032	100
33.9105	72
33.9179	95
33.9253	88
33.9327	96
33.9401	90
33.9475	110
33.9549	108
33.9623	94
33.9697	87
33.9771	108
33.9845	106
33.9919	108
33.9993	115
34.0067	111
34.0141	118
34.0215	111
34.0289	116
34.0363	117
34.0437	129
34.0511	121
34.0585	126
34.0658	113
34.0732	113
34.0806	128
34.0880	140
34.0954	134
34.1028	120
34.1102	141
34.1176	111
34.1250	141
34.1324	114
34.1398	139
34.1472	121
34.1546	122
34.1620	117
34.1694	135
34.1768	132
34.1842	106
34.1916	106
34.1990	101
34.2064	127
34.2138	100
34.2211	86
34.2285	113
34.2359	90
34.2433	86
34.2507	85
34.2581	96
34.2655	83
34.2729	91
34.2803	88
34.2877	91
34.2951	70
34.3025	76
34.3099	76
34.3173	75
34.3247	89
34.3321	85
34.3395	68
34.3469	73
34.3543	80
34.3617	75
34.3691	92
34.3764	77
34.3838	84
34.3912	70
34.3986	89
34.4060	63
34.4134	78
34.4208	83
34.4282	91
34.4356	69
34.4430	75
34.4504	77
34.4578	77
34.4652	77
34.4726	70
34.4800	74
34.4874	69
34.4948	84
34.5022	79
34.5096	91
34.5170	58
34.5244	60
34.5317	82
34.5391	88
34.5465	72
34.5539	69
34.5613	85
34.5687	83
34.5761	80
34.5835	72
34.5909	77
34.5983	79
34.6057	73
34.6131	106
34.6205	86
34.6279	68
34.6353	91
34.6427	62
34.6501	69
34.6575	87
34.6649	77
34.6723	70
34.6797	71
34.6870	59
34.6944	85
34.7018	88
34.7092	70
34.7166	65
34.7240	64
34.7314	77
34.7388	84
34.7462	88
34.7536	90
34.7610	84
34.7684	84
34.7758	85
34.7832	75
34.7906	83
34.7980	82
34.8054	76
34.8128	75
34.8202	76
34.8276	81
34.8350	66
34.8423	88
34.8497	67
34.8571	81
34.8645	83
34.8719	65
34.8793	66
34.8867	77
34.8941	80
34.9015	84
34.9089	71
34.9163	85
34.9237	85
34.9311	82
34.9385	76
34.9459	83
34.9533	83
34.9607	77
34.9681	104
34.9755	73
34.9829	83
34.9903	92
34.9977	91
35.0050	87
35.0124	110
35.0198	106
35.0272	92
35.0346	100
35.0420	102
35.0494	82
35.0568	92
35.0642	83
35.0716	94
35.0790	92
35.0864	85
35.0938	90
35.1012	89
35.1086	98
35.1160	116
35.1234	95
35.1308	83
35.1382	87
35.1456	101
35.1530	92
35.1603	97
35.1677	111
35.1751	128
35.1825	100
35.1899	108
35.1973	121
35.2047	114
35.2121	119
35.2195	102
35.2269	127
35.2343	115
35.2417	115
35.2491	109
35.2565	119
35.2639	119
35.2713	126
35.2787	110
35.2861	125
35.2935	126
35.3009	100
35.3083	100
35.3156	114
35.3230	100
35.3304	104
35.3378	95
35.3452	88
35.3526	92
35.3600	82
35.3674	89
35.3748	90
35.3822	92
35.3896	83
35.3970	84
35.4044	79
35.4118	93
35.4192	100
35.4266	77
35.4340	89
35.4414	95
35.4488	104
35.4562	102
35.4636	132
35.4709	111
35.4783	121
35.4857	122
35.4931	108
35.5005	130
35.5079	114
35.5153	130
35.5227	118
35.5301	132
35.5375	124
35.5449	99
35.5523	102
35.5597	117
35.5671	111
35.5745	103
35.5819	119
35.5893	114
35.5967	106
35.6041	97
35.6115	98
35.6189	100
35.6262	88
35.6336	90
35.6410	94
35.6484	103
35.6558	93
35.6632	90
35.6706	83
35.6780	90
35.6854	100
35.6928	75
35.7002	84
35.7076	68
35.7150	88
35.7224	92
35.7298	74
35.7372	82
35.7446	95
35.7520	76
35.7594	78
35.7668	80
35.7742	68
35.7815	78
35.7889	85
35.7963	72
35.8037	70
35.8111	67
35.8185	70
35.8259	73
35.8333	74
35.8407	82
35.8481	85
35.8555	100
35.8629	81
35.8703	81
35.8777	95
35.8851	111
35.8925	90
35.8999	82
35.9073	78
35.9147	73
35.9221	81
35.9295	90
35.9368	93
35.9442	80
35.9516	81
35.9590	100
35.9664	96
35.9738	107
35.9812	97
35.9886	101
35.9960	136
36.0034	107
36.0108	101
36.0182	126
36.0256	158
36.0330	152
36.0404	171
36.0478	191
36.0552	197
36.0626	231
36.0700	197
36.0774	185
36.0848	193
36.0921	222
36.0995	221
36.1069	228
36.1143	207
36.1217	237
36.1291	224
36.1365	214
36.1439	245
36.1513	235
36.1587	241
36.1661	220
36.1735	237
36.1809	234
36.1883	208
36.1957	213
36.2031	219
36.2105	233
36.2179	204
36.2253	224
36.2327	213
36.2401	190
36.2474	197
36.2548	162
36.2622	173
36.2696	177
36.2770	144
36.2844	154
36.2918	160
36.2992	125
36.3066	145
36.3140	161
36.3214	145
36.3288	136
36.3362	173
36.3436	164
36.3510	170
36.3584	160
36.3658	160
36.3732	163
36.3806	172
36.3880	154
36.3954	151
36.4027	142
36.4101	149
36.4175	114
36.4249	147
36.4323	135
36.4397	140
36.4471	138
36.4545	146
36.4619	134
36.4693	107
36.4767	124
36.4841	125
36.4915	114
36.4989	90
36.5063	90
36.5137	95
36.5211	107
36.5285	101
36.5359	95
36.5433	99
36.5507	93
36.5580	88
36.5654	107
36.5728	93
36.5802	72
36.5876	86
36.5950	80
36.6024	88
36.6098	75
36.6172	85
36.6246	87
36.6320	85
36.6394	83
36.6468	63
36.6542	65
36.6616	71
36.6690	71
36.6764	75
36.6838	84
36.6912	78
36.6986	53
36.7060	71
36.7134	71
36.7207	75
36.7281	64
36.7355	72
36.7429	84
36.7503	89
36.7577	74
36.7651	80
36.7725	72
36.7799	73
36.7873	77
36.7947	79
36.8021	77
36.8095	88
36.8169	77
36.8243	79
36.8317	75
36.8391	77
36.8465	78
36.8539	88
36.8613	67
36.8687	79
36.8760	66
36.8834	70
36.8908	79
36.8982	88
36.9056	81
36.9130	92
36.9204	82
36.9278	86
36.9352	72
36.9426	61
36.9500	70
36.9574	82
36.9648	67
36.9722	67
36.9796	67
36.9870	81
36.9944	75
37.0018	88
37.0092	69
37.0166	63
37.0240	88
37.0313	88
37.0387	84
37.0461	81
37.0535	79
37.0609	60
37.0683	81
37.0757	79
37.0831	95
37.0905	72
37.0979	67
37.1053	72
37.1127	77
37.1201	70
37.1275	88
37.1349	72
37.1423	82
37.1497	102
37.1571	101
37.1645	86
37.1719	101
37.1793	106
37.1866	113
37.1940	104
37.2014	114
37.2088	98
37.2162	105
37.2236	116
37.2310	119
37.2384	117
37.2458	99
37.2532	122
37.2606	118
37.2680	102
37.2754	108
37.2828	103
37.2902	89
37.2976	102
37.3050	90
37.3124	95
37.3198	89
37.3272	89
37.3346	85
37.3419	86
37.3493	84
37.3567	69
37.3641	74
37.3715	81
37.3789	71
37.3863	91
37.3937	71
37.4011	78
37.4085	68
37.4159	85
37.4233	88
37.4307	79
37.4381	74
37.4455	84
37.4529	81
37.4603	63
37.4677	76
37.4751	87
37.4825	74
37.4899	83
37.4972	77
37.5046	101
37.5120	83
37.5194	81
37.5268	72
37.5342	85
37.5416	88
37.5490	92
37.5564	92
37.5638	80
37.5712	82
37.5786	93
37.5860	106
37.5934	101
37.6008	97
37.6082	100
37.6156	106
37.6230	136
37.6304	115
37.6378	109
37.6452	128
37.6525	106
37.6599	117
37.6673	128
37.6747	140
37.6821	149
37.6895	162
37.6969	150
37.7043	179
37.7117	138
37.7191	139
37.7265	163
37.7339	176
37.7413	168
37.7487	189
37.7561	158
37.7635	168
37.7709	171
37.7783	167
37.7857	156
37.7931	165
37.8005	184
37.8078	175
37.8152	138
37.8226	142
37.8300	150
37.8374	117
37.8448	122
37.8522	127
37.8596	124
37.8670	101
37.8744	110
37.8818	110
37.8892	126
37.8966	90
37.9040	86
37.9114	93
37.9188	99
37.9262	98
37.9336	89
37.9410	90
37.9484	90
37.9558	87
37.9631	80
37.9705	73
37.9779	96
37.9853	95
37.9927	77
38.0001	70
38.0075	65
38.0149	84
38.0223	59
38.0297	81
38.0371	86
38.0445	117
38.0519	80
38.0593	92
38.0667	84
38.0741	75
38.0815	79
38.0889	78
38.0963	90
38.1037	73
38.1111	69
38.1184	62
38.1258	72
38.1332	71
38.1406	83
38.1480	75
38.1554	73
38.1628	84
38.1702	78
38.1776	64
38.1850	62
38.1924	74
38.1998	74
38.2072	84
38.2146	92
38.2220	74
38.2294	84
38.2368	77
38.2442	81
38.2516	98
38.2590	78
38.2664	95
38.2738	77
38.2811	88
38.2885	98
38.2959	105
38.3033	115
38.3107	119
38.3181	108
38.3255	114
38.3329	106
38.3403	131
38.3477	110
38.3551	113
38.3625	120
38.3699	121
38.3773	104
38.3847	149
38.3921	120
38.3995	133
38.4069	133
38.4143	122
38.4217	123
38.4291	136
38.4364	95
38.4438	106
38.4512	131
38.4586	126
38.4660	115
38.4734	113
38.4808	127
38.4882	120
38.4956	141
38.5030	149
38.5104	134
38.5178	122
38.5252	152
38.5326	140
38.5400	145
38.5474	143
38.5548	128
38.5622	130
38.5696	129
38.5770	133
38.5844	141
38.5917	119
38.5991	117
38.6065	133
38.6139	121
38.6213	113
38.6287	122
38.6361	114
38.6435	110
38.6509	104
38.6583	104
38.6657	120
38.6731	108
38.6805	99
38.6879	100
38.6953	97
38.7027	80
38.7101	106
38.7175	91
38.7249	96
38.7323	75
38.7397	62
38.7470	90
38.7544	76
38.7618	91
38.7692	72
38.7766	55
38.7840	73
38.7914	70
38.7988	76
38.8062	90
38.8136	96
38.8210	80
38.8284	80
38.8358	73
38.8432	80
38.8506	94
38.8580	91
38.8654	74
38.8728	93
38.8802	93
38.8876	76
38.8950	93
38.9023	77
38.9097	73
38.9171	80
38.9245	65
38.9319	80
38.9393	88
38.9467	88
38.9541	79
38.9615	84
38.9689	82
38.9763	82
38.9837	81
38.9911	84
38.9985	74
39.0059	87
39.0133	90
39.0207	88
39.0281	60
39.0355	86
39.0429	85
39.0503	75
39.0576	90
39.0650	101
39.0724	80
39.0798	84
39.0872	88
39.0946	71
39.1020	78
39.1094	87
39.1168	103
39.1242	81
39.1316	86
39.1390	93
39.1464	88
39.1538	92
39.1612	93
39.1686	113
39.1760	103
39.1834	90
39.1908	101
39.1982	88
39.2056	122
39.2129	81
39.2203	101
39.2277	119
39.2351	116
39.2425	129
39.2499	136
39.2573	130
39.2647	125
39.2721	169
39.2795	171
39.2869	190
39.2943	182
39.3017	196
39.3091	209
39.3165	221
39.3239	184
39.3313	198
39.3387	205
39.3461	201
39.3535	197
39.3609	206
39.3682	211
39.3756	203
39.3830	265
39.3904	208
39.3978	215
39.4052	256
39.4126	206
39.4200	236
39.4274	200
39.4348	236
39.4422	197
39.4496	217
39.4570	215
39.4644	204
39.4718	179
39.4792	192
39.4866	189
39.4940	205
39.5014	190
39.5088	180
39.5162	183
39.5235	187
39.5309	204
39.5383	161
39.5457	175
39.5531	177
39.5605	167
39.5679	169
39.5753	169
39.5827	158
39.5901	142
39.5975	156
39.6049	149
39.6123	142
39.6197	139
39.6271	118
39.6345	119
39.6419	128
39.6493	130
39.6567	131
39.6641	111
39.6715	106
39.6788	124
39.6862	119
39.6936	114
39.7010	118
39.7084	109
39.7158	104
39.7232	100
39.7306	100
39.7380	104
39.7454	68
39.7528	94
39.7602	80
39.7676	91
39.7750	100
39.7824	101
39.7898	77
39.7972	102
39.8046	80
39.8120	91
39.8194	101
39.8268	106
39.8342	111
39.8415	107
39.8489	110
39.8563	121
39.8637	115
39.8711	117
39.8785	109
39.8859	115
39.8933	111
39.9007	132
39.9081	98
39.9155	112
39.9229	125
39.9303	119
39.9377	124
39.9451	98
39.9525	101
39.9599	120
39.9673	118
39.9747	95
39.9821	92
39.9895	99
39.9968	88
