2.0000	117
2.0074	124
2.0148	136
2.0222	118
2.0296	124
2.0370	113
2.0444	130
2.0518	111
2.0592	112
2.0666	126
2.0740	106
2.0813	133
2.0887	104
2.0961	125
2.1035	110
2.1109	121
2.1183	134
2.1257	112
2.1331	121
2.1405	125
2.1479	126
2.1553	117
2.1627	125
2.1701	116
2.1775	120
2.1849	137
2.1923	104
2.1997	141
2.2071	108
2.2145	125
2.2219	121
2.2293	107
2.2366	114
2.2440	104
2.2514	123
2.2588	122
2.2662	113
2.2736	122
2.2810	107
2.2884	127
2.2958	121
2.3032	111
2.3106	114
2.3180	128
2.3254	114
2.3328	110
2.3402	144
2.3476	120
2.3550	97
2.3624	103
2.3698	131
2.3772	107
2.3846	118
2.3919	94
2.3993	96
2.4067	109
2.4141	109
2.4215	118
2.4289	97
2.4363	113
2.4437	103
2.4511	95
2.4585	95
2.4659	98
2.4733	88
2.4807	108
2.4881	99
2.4955	106
2.5029	106
2.5103	109
2.5177	114
2.5251	94
2.5325	99
2.5399	107
2.5472	90
2.5546	92
2.5620	93
2.5694	100
2.5768	103
2.5842	103
2.5916	103
2.5990	75
2.6064	91
2.6138	104
2.6212	108
2.6286	94
2.6360	93
2.6434	112
2.6508	81
2.6582	109
2.6656	95
2.6730	111
2.6804	92
2.6878	76
2.6952	86
2.7025	98
2.7099	104
2.7173	75
2.7247	100
2.7321	82
2.7395	103
2.7469	90
2.7543	82
2.7617	98
2.7691	73
2.7765	92
2.7839	70
2.7913	86
2.7987	69
2.8061	82
2.8135	102
2.8209	94
2.8283	81
2.8357	95
2.8431	96
2.8505	81
2.8579	84
2.8652	88
2.8726	107
2.8800	79
2.8874	74
2.8948	86
2.9022	98
2.9096	90
2.9170	91
2.9244	95
2.9318	84
2.9392	81
2.9466	68
2.9540	77
2.9614	82
2.9688	63
2.9762	68
2.9836	86
2.9910	59
2.9984	74
3.0058	75
3.0132	70
3.0205	70
3.0279	81
3.0353	73
3.0427	80
3.0501	78
3.0575	85
3.0649	65
3.0723	71
3.0797	93
3.0871	66
3.0945	71
3.1019	69
3.1093	70
3.1167	81
3.1241	104
3.1315	68
3.1389	95
3.1463	62
3.1537	81
3.1611	80
3.1685	73
3.1758	68
3.1832	98
3.1906	83
3.1980	79
3.2054	72
3.2128	85
3.2202	64
3.2276	62
3.2350	64
3.2424	84
3.2498	72
3.2572	61
3.2646	81
3.2720	70
3.2794	79
3.2868	74
3.2942	73
3.3016	72
3.3090	60
3.3164	79
3.3238	75
3.3311	58
3.3385	71
3.3459	67
3.3533	73
3.3607	73
3.3681	47
3.3755	42
3.3829	67
3.3903	78
3.3977	60
3.4051	56
3.4125	69
3.4199	66
3.4273	64
3.4347	52
3.4421	65
3.4495	75
3.4569	51
3.4643	55
3.4717	59
3.4791	53
3.4864	63
3.4938	56
3.5012	59
3.5086	73
3.5160	65
3.5234	63
3.5308	50
3.5382	66
3.5456	66
3.5530	71
3.5604	56
3.5678	59
3.5752	63
3.5826	55
3.5900	61
3.5974	65
3.6048	70
3.6122	71
3.6196	71
3.6270	49
3.6344	74
3.6417	73
3.6491	61
3.6565	54
3.6639	70
3.6713	50
3.6787	77
3.6861	50
3.6935	60
3.7009	52
3.7083	48
3.7157	51
3.7231	61
3.7305	50
3.7379	55
3.7453	57
3.7527	63
3.7601	66
3.7675	60
3.7749	58
3.7823	49
3.7897	56
3.7970	55
3.8044	63
3.8118	55
3.8192	53
3.8266	59
3.8340	49
3.8414	48
3.8488	59
3.8562	43
3.8636	50
3.8710	49
3.8784	47
3.8858	57
3.8932	59
3.9006	57
3.9080	42
3.9154	57
3.9228	57
3.9302	50
3.9376	47
3.9450	58
3.9523	46
3.9597	53
3.9671	43
3.9745	48
3.9819	43
3.9893	50
3.9967	44
4.0041	37
4.0115	57
4.0189	50
4.0263	49
4.0337	50
4.0411	44
4.0485	43
4.0559	67
4.0633	64
4.0707	45
4.0781	60
4.0855	42
4.0929	51
4.1003	50
4.1076	46
4.1150	48
4.1224	45
4.1298	51
4.1372	44
4.1446	49
4.1520	43
4.1594	56
4.1668	31
4.1742	50
4.1816	45
4.1890	51
4.1964	51
4.2038	43
4.2112	47
4.2186	43
4.2260	42
4.2334	45
4.2408	46
4.2482	51
4.2556	63
4.2629	46
4.2703	55
4.2777	44
4.2851	46
4.2925	50
4.2999	43
4.3073	37
4.3147	54
4.3221	43
4.3295	44
4.3369	45
4.3443	38
4.3517	47
4.3591	54
4.3665	40
4.3739	49
4.3813	43
4.3887	55
4.3961	44
4.4035	34
4.4109	41
4.4183	41
4.4256	47
4.4330	53
4.4404	50
4.4478	51
4.4552	43
4.4626	36
4.4700	40
4.4774	45
4.4848	44
4.4922	52
4.4996	42
4.5070	43
4.5144	34
4.5218	44
4.5292	44
4.5366	47
4.5440	44
4.5514	36
4.5588	49
4.5662	50
4.5736	43
4.5809	44
4.5883	44
4.5957	42
4.6031	41
4.6105	41
4.6179	37
4.6253	47
4.6327	28
4.6401	47
4.6475	30
4.6549	57
4.6623	47
4.6697	44
4.6771	41
4.6845	32
4.6919	29
4.6993	50
4.7067	26
4.7141	29
4.7215	38
4.7289	42
4.7362	43
4.7436	25
4.7510	32
4.7584	38
4.7658	45
4.7732	35
4.7806	34
4.7880	37
4.7954	37
4.8028	35
4.8102	44
4.8176	33
4.8250	29
4.8324	33
4.8398	34
4.8472	45
4.8546	41
4.8620	41
4.8694	40
4.8768	40
4.8842	44
4.8915	46
4.8989	38
4.9063	39
4.9137	39
4.9211	33
4.9285	39
4.9359	24
4.9433	31
4.9507	33
4.9581	36
4.9655	27
4.9729	42
4.9803	34
4.9877	41
4.9951	24
5.0025	47
5.0099	40
5.0173	35
5.0247	25
5.0321	47
5.0395	38
5.0468	36
5.0542	34
5.0616	38
5.0690	41
5.0764	42
5.0838	40
5.0912	26
5.0986	29
5.1060	37
5.1134	34
5.1208	43
5.1282	33
5.1356	42
5.1430	41
5.1504	40
5.1578	34
5.1652	37
5.1726	38
5.1800	31
5.1874	43
5.1948	39
5.2021	29
5.2095	39
5.2169	37
5.2243	31
5.2317	32
5.2391	32
5.2465	36
5.2539	36
5.2613	39
5.2687	44
5.2761	44
5.2835	40
5.2909	34
5.2983	31
5.3057	35
5.3131	28
5.3205	18
5.3279	38
5.3353	43
5.3427	43
5.3501	38
5.3574	49
5.3648	33
5.3722	46
5.3796	38
5.3870	36
5.3944	30
5.4018	42
5.4092	26
5.4166	39
5.4240	35
5.4314	39
5.4388	34
5.4462	32
5.4536	35
5.4610	41
5.4684	36
5.4758	41
5.4832	42
5.4906	40
5.4980	36
5.5054	35
5.5127	37
5.5201	37
5.5275	38
5.5349	32
5.5423	32
5.5497	35
5.5571	39
5.5645	26
5.5719	35
5.5793	30
5.5867	41
5.5941	31
5.6015	37
5.6089	37
5.6163	47
5.6237	36
5.6311	31
5.6385	23
5.6459	29
5.6533	30
5.6607	32
5.6680	31
5.6754	32
5.6828	28
5.6902	31
5.6976	33
5.7050	37
5.7124	32
5.7198	40
5.7272	32
5.7346	28
5.7420	26
5.7494	39
5.7568	34
5.7642	36
5.7716	32
5.7790	30
5.7864	34
5.7938	41
5.8012	33
5.8086	47
5.8160	34
5.8233	35
5.8307	29
5.8381	32
5.8455	45
5.8529	26
5.8603	41
5.8677	36
5.8751	37
5.8825	32
5.8899	43
5.8973	50
5.9047	31
5.9121	42
5.9195	25
5.9269	23
5.9343	35
5.9417	34
5.9491	31
5.9565	38
5.9639	32
5.9713	36
5.9786	29
5.9860	27
5.9934	38
6.0008	34
6.0082	36
6.0156	28
6.0230	29
6.0304	33
6.0378	34
6.0452	29
6.0526	34
6.0600	44
6.0674	33
6.0748	37
6.0822	25
6.0896	28
6.0970	38
6.1044	32
6.1118	28
6.1192	42
6.1266	44
6.1340	37
6.1413	41
6.1487	31
6.1561	28
6.1635	32
6.1709	29
6.1783	39
6.1857	34
6.1931	38
6.2005	41
6.2079	49
6.2153	26
6.2227	34
6.2301	33
6.2375	46
6.2449	41
6.2523	30
6.2597	49
6.2671	26
6.2745	35
6.2819	37
6.2893	32
6.2966	30
6.3040	34
6.3114	32
6.3188	29
6.3262	30
6.3336	26
6.3410	35
6.3484	29
6.3558	32
6.3632	25
6.3706	29
6.3780	41
6.3854	38
6.3928	28
6.4002	30
6.4076	32
6.4150	27
6.4224	34
6.4298	27
6.4372	32
6.4446	41
6.4519	31
6.4593	36
6.4667	39
6.4741	37
6.4815	35
6.4889	37
6.4963	28
6.5037	27
6.5111	29
6.5185	24
6.5259	43
6.5333	28
6.5407	33
6.5481	27
6.5555	34
6.5629	39
6.5703	33
6.5777	42
6.5851	28
6.5925	34
6.5999	28
6.6072	36
6.6146	26
6.6220	27
6.6294	32
6.6368	32
6.6442	35
6.6516	33
6.6590	37
6.6664	42
6.6738	25
6.6812	30
6.6886	28
6.6960	31
6.7034	32
6.7108	22
6.7182	30
6.7256	25
6.7330	35
6.7404	33
6.7478	34
6.7552	27
6.7625	28
6.7699	32
6.7773	38
6.7847	31
6.7921	34
6.7995	31
6.8069	39
6.8143	26
6.8217	30
6.8291	39
6.8365	30
6.8439	46
6.8513	34
6.8587	31
6.8661	28
6.8735	24
6.8809	29
6.8883	40
6.8957	27
6.9031	35
6.9105	28
6.9178	28
6.9252	37
6.9326	30
6.9400	40
6.9474	31
6.9548	31
6.9622	44
6.9696	44
6.9770	33
6.9844	41
6.9918	30
6.9992	35
7.0066	32
7.0140	41
7.0214	33
7.0288	18
7.0362	26
7.0436	30
7.0510	33
7.0584	30
7.0658	35
7.0731	32
7.0805	36
7.0879	36
7.0953	28
7.1027	43
7.1101	35
7.1175	41
7.1249	32
7.1323	35
7.1397	30
7.1471	30
7.1545	38
7.1619	34
7.1693	29
7.1767	35
7.1841	28
7.1915	32
7.1989	27
7.2063	32
7.2137	31
7.2211	22
7.2284	34
7.2358	29
7.2432	24
7.2506	22
7.2580	27
7.2654	20
7.2728	38
7.2802	22
7.2876	30
7.2950	32
7.3024	31
7.3098	38
7.3172	32
7.3246	28
7.3320	32
7.3394	36
7.3468	30
7.3542	37
7.3616	30
7.3690	28
7.3764	25
7.3837	32
7.3911	29
7.3985	38
7.4059	35
7.4133	25
7.4207	24
7.4281	31
7.4355	23
7.4429	31
7.4503	30
7.4577	32
7.4651	26
7.4725	27
7.4799	35
7.4873	33
7.4947	32
7.5021	31
7.5095	29
7.5169	33
7.5243	27
7.5317	32
7.5390	26
7.5464	27
7.5538	28
7.5612	38
7.5686	33
7.5760	40
7.5834	26
7.5908	42
7.5982	24
7.6056	31
7.6130	35
7.6204	35
7.6278	27
7.6352	26
7.6426	37
7.6500	35
7.6574	34
7.6648	24
7.6722	36
7.6796	24
7.6870	36
7.6944	28
7.7017	48
7.7091	46
7.7165	46
7.7239	35
7.7313	37
7.7387	29
7.7461	35
7.7535	34
7.7609	41
7.7683	37
7.7757	38
7.7831	24
7.7905	32
7.7979	25
7.8053	29
7.8127	39
7.8201	30
7.8275	32
7.8349	31
7.8423	28
7.8497	28
7.8570	31
7.8644	35
7.8718	25
7.8792	34
7.8866	25
7.8940	34
7.9014	39
7.9088	31
7.9162	33
7.9236	30
7.9310	28
7.9384	36
7.9458	27
7.9532	31
7.9606	31
7.9680	38
7.9754	39
7.9828	31
7.9902	34
7.9976	32
8.0050	36
8.0123	32
8.0197	40
8.0271	31
8.0345	33
8.0419	38
8.0493	39
8.0567	33
8.0641	33
8.0715	43
8.0789	43
8.0863	36
8.0937	38
8.1011	42
8.1085	38
8.1159	29
8.1233	37
8.1307	39
8.1381	32
8.1455	33
8.1529	43
8.1603	52
8.1676	51
8.1750	43
8.1824	54
8.1898	38
8.1972	68
8.2046	56
8.2120	54
8.2194	61
8.2268	56
8.2342	79
8.2416	84
8.2490	87
8.2564	67
8.2638	74
8.2712	84
8.2786	94
8.2860	94
8.2934	98
8.3008	90
8.3082	106
8.3156	111
8.3229	99
8.3303	115
8.3377	146
8.3451	140
8.3525	133
8.3599	182
8.3673	170
8.3747	172
8.3821	216
8.3895	215
8.3969	234
8.4043	263
8.4117	288
8.4191	346
8.4265	371
8.4339	383
8.4413	480
8.4487	571
8.4561	622
8.4635	712
8.4709	878
8.4782	1079
8.4856	1440
8.4930	1867
8.5004	2413
8.5078	3012
8.5152	3885
8.5226	4371
8.5300	4720
8.5374	4473
8.5448	4092
8.5522	3445
8.5596	2806
8.5670	2046
8.5744	1534
8.5818	1095
8.5892	814
8.5966	533
8.6040	385
8.6114	303
8.6188	246
8.6262	228
8.6335	178
8.6409	169
8.6483	119
8.6557	134
8.6631	103
8.6705	114
8.6779	91
8.6853	100
8.6927	88
8.7001	93
8.7075	85
8.7149	89
8.7223	75
8.7297	94
8.7371	78
8.7445	75
8.7519	78
8.7593	75
8.7667	83
8.7741	82
8.7815	65
8.7888	68
8.7962	79
8.8036	73
8.8110	75
8.8184	78
8.8258	77
8.8332	78
8.8406	66
8.8480	70
8.8554	61
8.8628	63
8.8702	67
8.8776	70
8.8850	59
8.8924	65
8.8998	63
8.9072	63
8.9146	62
8.9220	52
8.9294	65
8.9368	65
8.9441	58
8.9515	51
8.9589	50
8.9663	57
8.9737	64
8.9811	50
8.9885	65
8.9959	60
9.0033	56
9.0107	57
9.0181	47
9.0255	47
9.0329	52
9.0403	40
9.0477	59
9.0551	53
9.0625	57
9.0699	44
9.0773	42
9.0847	58
9.0921	47
9.0994	48
9.1068	53
9.1142	61
9.1216	52
9.1290	65
9.1364	41
9.1438	41
9.1512	47
9.1586	41
9.1660	41
9.1734	61
9.1808	44
9.1882	53
9.1956	35
9.2030	45
9.2104	58
9.2178	42
9.2252	55
9.2326	45
9.2400	46
9.2474	49
9.2548	47
9.2621	41
9.2695	56
9.2769	57
9.2843	59
9.2917	45
9.2991	51
9.3065	51
9.3139	56
9.3213	52
9.3287	51
9.3361	45
9.3435	50
9.3509	55
9.3583	47
9.3657	43
9.3731	45
9.3805	47
9.3879	38
9.3953	49
9.4027	39
9.4101	41
9.4174	38
9.4248	43
9.4322	49
9.4396	49
9.4470	35
9.4544	36
9.4618	50
9.4692	38
9.4766	46
9.4840	36
9.4914	25
9.4988	32
9.5062	41
9.5136	39
9.5210	59
9.5284	37
9.5358	47
9.5432	38
9.5506	29
9.5580	50
9.5654	57
9.5727	42
9.5801	45
9.5875	51
9.5949	46
9.6023	44
9.6097	28
9.6171	43
9.6245	53
9.6319	42
9.6393	36
9.6467	37
9.6541	32
9.6615	38
9.6689	44
9.6763	43
9.6837	42
9.6911	36
9.6985	43
9.7059	36
9.7133	35
9.7207	46
9.7280	44
9.7354	53
9.7428	43
9.7502	34
9.7576	30
9.7650	41
9.7724	31
9.7798	48
9.7872	38
9.7946	34
9.8020	32
9.8094	37
9.8168	31
9.8242	34
9.8316	50
9.8390	42
9.8464	38
9.8538	34
9.8612	46
9.8686	40
9.8760	35
9.8833	34
9.8907	25
9.8981	34
9.9055	38
9.9129	45
9.9203	38
9.9277	42
9.9351	44
9.9425	30
9.9499	28
9.9573	27
9.9647	32
9.9721	44
9.9795	49
9.9869	38
9.9943	44
10.0017	33
10.0091	40
10.0165	38
10.0239	45
10.0313	46
10.0386	37
10.0460	35
10.0534	38
10.0608	35
10.0682	38
10.0756	26
10.0830	46
10.0904	40
10.0978	39
10.1052	31
10.1126	40
10.1200	30
10.1274	37
10.1348	42
10.1422	26
10.1496	32
10.1570	24
10.1644	42
10.1718	40
10.1792	37
10.1866	42
10.1939	38
10.2013	41
10.2087	38
10.2161	42
10.2235	28
10.2309	50
10.2383	31
10.2457	39
10.2531	36
10.2605	39
10.2679	30
10.2753	34
10.2827	39
10.2901	36
10.2975	33
10.3049	43
10.3123	32
10.3197	31
10.3271	30
10.3345	40
10.3419	30
10.3492	39
10.3566	35
10.3640	36
10.3714	36
10.3788	42
10.3862	36
10.3936	24
10.4010	28
10.4084	36
10.4158	34
10.4232	32
10.4306	38
10.4380	31
10.4454	36
10.4528	38
10.4602	31
10.4676	37
10.4750	24
10.4824	38
10.4898	36
10.4972	35
10.5045	29
10.5119	22
10.5193	34
10.5267	41
10.5341	32
10.5415	35
10.5489	37
10.5563	37
10.5637	35
10.5711	42
10.5785	34
10.5859	30
10.5933	30
10.6007	32
10.6081	38
10.6155	50
10.6229	41
10.6303	35
10.6377	34
10.6451	27
10.6525	47
10.6598	32
10.6672	22
10.6746	36
10.6820	37
10.6894	38
10.6968	39
10.7042	32
10.7116	35
10.7190	45
10.7264	30
10.7338	34
10.7412	36
10.7486	25
10.7560	44
10.7634	37
10.7708	29
10.7782	30
10.7856	37
10.7930	32
10.8004	35
10.8078	27
10.8151	32
10.8225	26
10.8299	32
10.8373	42
10.8447	32
10.8521	41
10.8595	27
10.8669	27
10.8743	32
10.8817	41
10.8891	29
10.8965	28
10.9039	20
10.9113	42
10.9187	33
10.9261	34
10.9335	36
10.9409	29
10.9483	27
10.9557	41
10.9631	40
10.9705	27
10.9778	42
10.9852	28
10.9926	33
11.0000	28
11.0074	28
11.0148	36
11.0222	44
11.0296	35
11.0370	20
11.0444	30
11.0518	30
11.0592	31
11.0666	30
11.0740	23
11.0814	29
11.0888	26
11.0962	27
11.1036	21
11.1110	30
11.1184	34
11.1258	36
11.1331	44
11.1405	30
11.1479	35
11.1553	49
11.1627	37
11.1701	46
11.1775	28
11.1849	43
11.1923	37
11.1997	46
11.2071	56
11.2145	35
11.2219	24
11.2293	32
11.2367	28
11.2441	41
11.2515	26
11.2589	37
11.2663	39
11.2737	25
11.2811	32
11.2884	34
11.2958	36
11.3032	38
11.3106	31
11.3180	25
11.3254	40
11.3328	37
11.3402	53
11.3476	29
11.3550	38
11.3624	35
11.3698	46
11.3772	34
11.3846	31
11.3920	53
11.3994	33
11.4068	37
11.4142	44
11.4216	56
11.4290	23
11.4364	37
11.4437	32
11.4511	30
11.4585	39
11.4659	40
11.4733	40
11.4807	35
11.4881	40
11.4955	51
11.5029	41
11.5103	36
11.5177	42
11.5251	47
11.5325	53
11.5399	50
11.5473	40
11.5547	50
11.5621	58
11.5695	44
11.5769	58
11.5843	68
11.5917	69
11.5990	81
11.6064	84
11.6138	94
11.6212	93
11.6286	114
11.6360	127
11.6434	164
11.6508	180
11.6582	225
11.6656	236
11.6730	264
11.6804	326
11.6878	433
11.6952	548
11.7026	628
11.7100	666
11.7174	707
11.7248	755
11.7322	741
11.7396	671
11.7470	582
11.7543	526
11.7617	422
11.7691	348
11.7765	270
11.7839	196
11.7913	177
11.7987	142
11.8061	131
11.8135	97
11.8209	79
11.8283	77
11.8357	74
11.8431	62
11.8505	67
11.8579	59
11.8653	51
11.8727	53
11.8801	61
11.8875	53
11.8949	60
11.9023	36
11.9096	48
11.9170	53
11.9244	45
11.9318	46
11.9392	59
11.9466	60
11.9540	74
11.9614	64
11.9688	60
11.9762	64
11.9836	57
11.9910	52
11.9984	73
12.0058	46
12.0132	57
12.0206	60
12.0280	61
12.0354	75
12.0428	60
12.0502	59
12.0576	65
12.0649	56
12.0723	69
12.0797	66
12.0871	62
12.0945	57
12.1019	78
12.1093	65
12.1167	69
12.1241	74
12.1315	65
12.1389	73
12.1463	98
12.1537	68
12.1611	95
12.1685	84
12.1759	84
12.1833	76
12.1907	106
12.1981	96
12.2055	85
12.2129	105
12.2202	123
12.2276	132
12.2350	149
12.2424	143
12.2498	159
12.2572	180
12.2646	252
12.2720	288
12.2794	335
12.2868	376
12.2942	492
12.3016	586
12.3090	753
12.3164	1007
12.3238	1346
12.3312	1857
12.3386	2397
12.3460	3134
12.3534	3725
12.3608	3951
12.3682	3867
12.3755	3518
12.3829	3125
12.3903	2801
12.3977	2292
12.4051	1703
12.4125	1284
12.4199	873
12.4273	601
12.4347	509
12.4421	354
12.4495	286
12.4569	222
12.4643	182
12.4717	162
12.4791	156
12.4865	129
12.4939	115
12.5013	117
12.5087	115
12.5161	98
12.5235	106
12.5309	85
12.5382	92
12.5456	58
12.5530	80
12.5604	89
12.5678	83
12.5752	64
12.5826	80
12.5900	91
12.5974	71
12.6048	62
12.6122	69
12.6196	55
12.6270	66
12.6344	62
12.6418	67
12.6492	58
12.6566	58
12.6640	53
12.6714	76
12.6788	65
12.6862	58
12.6935	47
12.7009	58
12.7083	52
12.7157	54
12.7231	58
12.7305	54
12.7379	56
12.7453	61
12.7527	49
12.7601	48
12.7675	54
12.7749	57
12.7823	53
12.7897	62
12.7971	75
12.8045	46
12.8119	56
12.8193	42
12.8267	57
12.8341	64
12.8415	44
12.8488	44
12.8562	54
12.8636	56
12.8710	61
12.8784	55
12.8858	66
12.8932	60
12.9006	52
12.9080	66
12.9154	59
12.9228	52
12.9302	50
12.9376	54
12.9450	50
12.9524	70
12.9598	50
12.9672	55
12.9746	59
12.9820	53
12.9894	57
12.9968	63
13.0041	48
13.0115	54
13.0189	55
13.0263	55
13.0337	47
13.0411	54
13.0485	53
13.0559	49
13.0633	45
13.0707	80
13.0781	59
13.0855	78
13.0929	62
13.1003	71
13.1077	74
13.1151	81
13.1225	93
13.1299	79
13.1373	88
13.1447	106
13.1521	137
13.1594	152
13.1668	139
13.1742	161
13.1816	194
13.1890	216
13.1964	305
13.2038	334
13.2112	440
13.2186	502
13.2260	593
13.2334	656
13.2408	772
13.2482	785
13.2556	800
13.2630	738
13.2704	651
13.2778	617
13.2852	489
13.2926	428
13.3000	374
13.3074	313
13.3147	250
13.3221	167
13.3295	176
13.3369	145
13.3443	130
13.3517	95
13.3591	89
13.3665	91
13.3739	76
13.3813	61
13.3887	78
13.3961	76
13.4035	86
13.4109	79
13.4183	61
13.4257	80
13.4331	76
13.4405	82
13.4479	68
13.4553	88
13.4627	71
13.4700	83
13.4774	62
13.4848	105
13.4922	66
13.4996	75
13.5070	63
13.5144	69
13.5218	85
13.5292	92
13.5366	98
13.5440	96
13.5514	95
13.5588	108
13.5662	146
13.5736	153
13.5810	146
13.5884	206
13.5958	236
13.6032	248
13.6106	304
13.6180	364
13.6253	418
13.6327	539
13.6401	677
13.6475	817
13.6549	962
13.6623	1147
13.6697	1313
13.6771	1302
13.6845	1293
13.6919	1359
13.6993	1272
13.7067	1186
13.7141	1115
13.7215	912
13.7289	752
13.7363	676
13.7437	475
13.7511	383
13.7585	331
13.7659	247
13.7733	204
13.7806	165
13.7880	145
13.7954	116
13.8028	94
13.8102	85
13.8176	82
13.8250	88
13.8324	85
13.8398	73
13.8472	95
13.8546	76
13.8620	56
13.8694	53
13.8768	75
13.8842	48
13.8916	46
13.8990	60
13.9064	65
13.9138	50
13.9212	64
13.9286	64
13.9359	62
13.9433	57
13.9507	63
13.9581	55
13.9655	64
13.9729	51
13.9803	52
13.9877	42
13.9951	57
14.0025	52
14.0099	57
14.0173	44
14.0247	54
14.0321	52
14.0395	71
14.0469	40
14.0543	47
14.0617	51
14.0691	40
14.0765	45
14.0839	55
14.0913	59
14.0986	57
14.1060	68
14.1134	47
14.1208	53
14.1282	68
14.1356	48
14.1430	67
14.1504	47
14.1578	52
14.1652	48
14.1726	52
14.1800	40
14.1874	54
14.1948	51
14.2022	45
14.2096	50
14.2170	58
14.2244	49
14.2318	43
14.2392	47
14.2466	51
14.2539	52
14.2613	56
14.2687	56
14.2761	53
14.2835	56
14.2909	69
14.2983	60
14.3057	64
14.3131	55
14.3205	56
14.3279	71
14.3353	75
14.3427	75
14.3501	95
14.3575	81
14.3649	105
14.3723	104
14.3797	127
14.3871	132
14.3945	149
14.4019	148
14.4092	150
14.4166	165
14.4240	138
14.4314	189
14.4388	150
14.4462	117
14.4536	117
14.4610	122
14.4684	94
14.4758	95
14.4832	73
14.4906	78
14.4980	57
14.5054	75
14.5128	50
14.5202	56
14.5276	47
14.5350	54
14.5424	49
14.5498	40
14.5572	56
14.5645	54
14.5719	39
14.5793	48
14.5867	40
14.5941	48
14.6015	47
14.6089	47
14.6163	58
14.6237	52
14.6311	40
14.6385	40
14.6459	38
14.6533	47
14.6607	44
14.6681	46
14.6755	46
14.6829	45
14.6903	54
14.6977	38
14.7051	46
14.7125	29
14.7198	37
14.7272	38
14.7346	39
14.7420	36
14.7494	51
14.7568	50
14.7642	51
14.7716	48
14.7790	31
14.7864	41
14.7938	35
14.8012	58
14.8086	46
14.8160	53
14.8234	38
14.8308	45
14.8382	37
14.8456	42
14.8530	55
14.8604	30
14.8678	40
14.8751	48
14.8825	43
14.8899	30
14.8973	47
14.9047	44
14.9121	48
14.9195	40
14.9269	55
14.9343	45
14.9417	36
14.9491	49
14.9565	46
14.9639	56
14.9713	43
14.9787	55
14.9861	29
14.9935	31
15.0009	48
15.0083	41
15.0157	41
15.0231	41
15.0304	42
15.0378	48
15.0452	42
15.0526	36
15.0600	41
15.0674	29
15.0748	44
15.0822	54
15.0896	45
15.0970	43
15.1044	43
15.1118	42
15.1192	40
15.1266	55
15.1340	40
15.1414	34
15.1488	40
15.1562	46
15.1636	42
15.1710	43
15.1784	44
15.1857	47
15.1931	39
15.2005	34
15.2079	40
15.2153	45
15.2227	49
15.2301	41
15.2375	40
15.2449	36
15.2523	37
15.2597	38
15.2671	37
15.2745	49
15.2819	38
15.2893	45
15.2967	43
15.3041	40
15.3115	41
15.3189	37
15.3263	47
15.3337	34
15.3410	39
15.3484	49
15.3558	43
15.3632	49
15.3706	35
15.3780	40
15.3854	37
15.3928	55
15.4002	46
15.4076	32
15.4150	58
15.4224	54
15.4298	43
15.4372	35
15.4446	48
15.4520	43
15.4594	39
15.4668	40
15.4742	51
15.4816	41
15.4890	55
15.4963	55
15.5037	65
15.5111	59
15.5185	71
15.5259	71
15.5333	79
15.5407	80
15.5481	78
15.5555	82
15.5629	91
15.5703	98
15.5777	100
15.5851	79
15.5925	72
15.5999	85
15.6073	76
15.6147	71
15.6221	60
15.6295	62
15.6369	73
15.6443	57
15.6516	41
15.6590	51
15.6664	45
15.6738	51
15.6812	37
15.6886	47
15.6960	54
15.7034	46
15.7108	53
15.7182	45
15.7256	48
15.7330	41
15.7404	37
15.7478	53
15.7552	46
15.7626	39
15.7700	42
15.7774	37
15.7848	49
15.7922	39
15.7996	41
15.8070	47
15.8143	36
15.8217	41
15.8291	35
15.8365	37
15.8439	46
15.8513	40
15.8587	39
15.8661	41
15.8735	36
15.8809	41
15.8883	30
15.8957	42
15.9031	44
15.9105	43
15.9179	32
15.9253	34
15.9327	38
15.9401	46
15.9475	43
15.9549	39
15.9623	38
15.9696	38
15.9770	31
15.9844	48
15.9918	46
15.9992	36
16.0066	45
16.0140	38
16.0214	52
16.0288	34
16.0362	43
16.0436	33
16.0510	43
16.0584	57
16.0658	27
16.0732	55
16.0806	49
16.0880	36
16.0954	37
16.1028	49
16.1102	49
16.1176	40
16.1249	46
16.1323	43
16.1397	51
16.1471	47
16.1545	49
16.1619	53
16.1693	42
16.1767	38
16.1841	40
16.1915	54
16.1989	48
16.2063	36
16.2137	53
16.2211	39
16.2285	50
16.2359	41
16.2433	29
16.2507	28
16.2581	42
16.2655	51
16.2729	47
16.2802	29
16.2876	42
16.2950	52
16.3024	46
16.3098	37
16.3172	47
16.3246	45
16.3320	45
16.3394	50
16.3468	48
16.3542	41
16.3616	53
16.3690	54
16.3764	53
16.3838	58
16.3912	42
16.3986	45
16.4060	53
16.4134	57
16.4208	49
16.4282	48
16.4355	45
16.4429	38
16.4503	46
16.4577	48
16.4651	50
16.4725	39
16.4799	56
16.4873	57
16.4947	50
16.5021	44
16.5095	55
16.5169	46
16.5243	45
16.5317	39
16.5391	63
16.5465	62
16.5539	56
16.5613	50
16.5687	39
16.5761	54
16.5835	50
16.5908	59
16.5982	53
16.6056	65
16.6130	57
16.6204	52
16.6278	57
16.6352	57
16.6426	69
16.6500	57
16.6574	59
16.6648	63
16.6722	81
16.6796	78
16.6870	75
16.6944	76
16.7018	80
16.7092	93
16.7166	107
16.7240	122
16.7314	126
16.7388	141
16.7461	155
16.7535	159
16.7609	192
16.7683	227
16.7757	299
16.7831	285
16.7905	370
16.7979	425
16.8053	482
16.8127	528
16.8201	574
16.8275	540
16.8349	574
16.8423	548
16.8497	537
16.8571	482
16.8645	416
16.8719	418
16.8793	377
16.8867	320
16.8941	294
16.9014	248
16.9088	213
16.9162	197
16.9236	203
16.9310	214
16.9384	176
16.9458	198
16.9532	193
16.9606	200
16.9680	204
16.9754	286
16.9828	350
16.9902	419
16.9976	503
17.0050	617
17.0124	806
17.0198	999
17.0272	1038
17.0346	1041
17.0420	1013
17.0494	922
17.0567	860
17.0641	835
17.0715	771
17.0789	672
17.0863	540
17.0937	474
17.1011	355
17.1085	310
17.1159	219
17.1233	186
17.1307	143
17.1381	119
17.1455	110
17.1529	99
17.1603	91
17.1677	54
17.1751	95
17.1825	68
17.1899	69
17.1973	56
17.2047	66
17.2120	69
17.2194	73
17.2268	79
17.2342	67
17.2416	68
17.2490	70
17.2564	47
17.2638	63
17.2712	59
17.2786	68
17.2860	57
17.2934	70
17.3008	58
17.3082	49
17.3156	63
17.3230	54
17.3304	48
17.3378	64
17.3452	54
17.3526	67
17.3600	59
17.3674	44
17.3747	54
17.3821	50
17.3895	59
17.3969	59
17.4043	48
17.4117	57
17.4191	53
17.4265	50
17.4339	56
17.4413	59
17.4487	51
17.4561	63
17.4635	66
17.4709	61
17.4783	59
17.4857	57
17.4931	67
17.5005	46
17.5079	59
17.5153	66
17.5227	65
17.5300	51
17.5374	59
17.5448	59
17.5522	62
17.5596	51
17.5670	55
17.5744	54
17.5818	66
17.5892	45
17.5966	65
17.6040	50
17.6114	55
17.6188	75
17.6262	55
17.6336	56
17.6410	71
17.6484	77
17.6558	68
17.6632	86
17.6706	72
17.6780	70
17.6853	73
17.6927	83
17.7001	77
17.7075	102
17.7149	82
17.7223	116
17.7297	108
17.7371	146
17.7445	163
17.7519	179
17.7593	231
17.7667	229
17.7741	245
17.7815	342
17.7889	377
17.7963	423
17.8037	466
17.8111	553
17.8185	606
17.8259	621
17.8333	688
17.8406	730
17.8480	810
17.8554	760
17.8628	789
17.8702	730
17.8776	739
17.8850	658
17.8924	613
17.8998	535
17.9072	480
17.9146	418
17.9220	369
17.9294	341
17.9368	262
17.9442	228
17.9516	192
17.9590	154
17.9664	119
17.9738	108
17.9812	105
17.9886	94
17.9959	92
18.0033	76
18.0107	82
18.0181	64
18.0255	63
18.0329	77
18.0403	83
18.0477	75
18.0551	66
18.0625	67
18.0699	67
18.0773	67
18.0847	62
18.0921	51
18.0995	64
18.1069	58
18.1143	65
18.1217	59
18.1291	65
18.1365	64
18.1439	65
18.1512	61
18.1586	62
18.1660	53
18.1734	71
18.1808	66
18.1882	73
18.1956	61
18.2030	59
18.2104	60
18.2178	78
18.2252	60
18.2326	66
18.2400	59
18.2474	57
18.2548	60
18.2622	71
18.2696	78
18.2770	71
18.2844	59
18.2918	61
18.2992	66
18.3065	56
18.3139	72
18.3213	62
18.3287	71
18.3361	74
18.3435	85
18.3509	56
18.3583	73
18.3657	66
18.3731	72
18.3805	63
18.3879	75
18.3953	70
18.4027	71
18.4101	80
18.4175	85
18.4249	83
18.4323	82
18.4397	99
18.4471	101
18.4545	116
18.4618	133
18.4692	135
18.4766	155
18.4840	170
18.4914	194
18.4988	275
18.5062	303
18.5136	406
18.5210	476
18.5284	587
18.5358	688
18.5432	820
18.5506	915
18.5580	1075
18.5654	1015
18.5728	1064
18.5802	1109
18.5876	1049
18.5950	993
18.6024	935
18.6098	961
18.6171	822
18.6245	755
18.6319	728
18.6393	648
18.6467	577
18.6541	563
18.6615	474
18.6689	420
18.6763	364
18.6837	321
18.6911	277
18.6985	251
18.7059	209
18.7133	171
18.7207	172
18.7281	148
18.7355	129
18.7429	83
18.7503	92
18.7577	85
18.7651	82
18.7724	80
18.7798	86
18.7872	79
18.7946	77
18.8020	94
18.8094	59
18.8168	58
18.8242	62
18.8316	63
18.8390	76
18.8464	63
18.8538	71
18.8612	66
18.8686	68
18.8760	87
18.8834	65
18.8908	68
18.8982	59
18.9056	70
18.9130	78
18.9204	74
18.9278	63
18.9351	55
18.9425	69
18.9499	55
18.9573	59
18.9647	58
18.9721	65
18.9795	60
18.9869	67
18.9943	68
19.0017	60
19.0091	61
19.0165	65
19.0239	55
19.0313	63
19.0387	62
19.0461	51
19.0535	55
19.0609	70
19.0683	70
19.0757	41
19.0831	62
19.0904	53
19.0978	67
19.1052	66
19.1126	62
19.1200	54
19.1274	43
19.1348	51
19.1422	59
19.1496	64
19.1570	72
19.1644	60
19.1718	61
19.1792	67
19.1866	60
19.1940	51
19.2014	46
19.2088	57
19.2162	52
19.2236	64
19.2310	56
19.2384	78
19.2457	53
19.2531	68
19.2605	67
19.2679	55
19.2753	60
19.2827	53
19.2901	52
19.2975	53
19.3049	54
19.3123	63
19.3197	58
19.3271	53
19.3345	49
19.3419	58
19.3493	65
19.3567	63
19.3641	75
19.3715	88
19.3789	79
19.3863	79
19.3937	86
19.4010	98
19.4084	106
19.4158	119
19.4232	122
19.4306	162
19.4380	137
19.4454	202
19.4528	207
19.4602	206
19.4676	206
19.4750	196
19.4824	202
19.4898	183
19.4972	201
19.5046	168
19.5120	157
19.5194	145
19.5268	134
19.5342	115
19.5416	94
19.5490	99
19.5563	98
19.5637	63
19.5711	75
19.5785	60
19.5859	61
19.5933	69
19.6007	75
19.6081	69
19.6155	84
19.6229	57
19.6303	65
19.6377	61
19.6451	40
19.6525	60
19.6599	57
19.6673	59
19.6747	57
19.6821	51
19.6895	55
19.6969	56
19.7043	70
19.7116	60
19.7190	54
19.7264	69
19.7338	63
19.7412	49
19.7486	51
19.7560	47
19.7634	59
19.7708	57
19.7782	61
19.7856	49
19.7930	59
19.8004	73
19.8078	64
19.8152	61
19.8226	72
19.8300	76
19.8374	63
19.8448	69
19.8522	72
19.8596	84
19.8669	76
19.8743	72
19.8817	72
19.8891	52
19.8965	66
19.9039	72
19.9113	62
19.9187	59
19.9261	55
19.9335	80
19.9409	66
19.9483	63
19.9557	51
19.9631	63
19.9705	65
19.9779	65
19.9853	73
19.9927	71
20.0001	56
20.0075	55
20.0149	53
20.0222	54
20.0296	65
20.0370	63
20.0444	53
20.0518	66
20.0592	70
20.0666	54
20.0740	68
20.0814	62
20.0888	59
20.0962	58
20.1036	66
20.1110	50
20.1184	70
20.1258	55
20.1332	61
20.1406	68
20.1480	56
20.1554	76
20.1628	63
20.1702	58
20.1775	73
20.1849	74
20.1923	62
20.1997	72
20.2071	65
20.2145	74
20.2219	66
20.2293	57
20.2367	58
20.2441	69
20.2515	69
20.2589	60
20.2663	66
20.2737	69
20.2811	50
20.2885	65
20.2959	76
20.3033	47
20.3107	69
20.3181	84
20.3255	75
20.3328	55
20.3402	64
20.3476	89
20.3550	77
20.3624	88
20.3698	83
20.3772	91
20.3846	98
20.3920	95
20.3994	83
20.4068	115
20.4142	121
20.4216	165
20.4290	145
20.4364	169
20.4438	205
20.4512	228
20.4586	253
20.4660	365
20.4734	410
20.4808	480
20.4882	607
20.4955	703
20.5029	729
20.5103	868
20.5177	905
20.5251	950
20.5325	1006
20.5399	997
20.5473	947
20.5547	894
20.5621	849
20.5695	774
20.5769	726
20.5843	625
20.5917	579
20.5991	489
20.6065	428
20.6139	372
20.6213	317
20.6287	267
20.6361	227
20.6435	183
20.6508	150
20.6582	127
20.6656	140
20.6730	122
20.6804	112
20.6878	92
20.6952	78
20.7026	92
20.7100	93
20.7174	62
20.7248	92
20.7322	84
20.7396	81
20.7470	71
20.7544	71
20.7618	70
20.7692	76
20.7766	95
20.7840	71
20.7914	86
20.7988	87
20.8061	61
20.8135	90
20.8209	81
20.8283	84
20.8357	86
20.8431	79
20.8505	92
20.8579	81
20.8653	95
20.8727	99
20.8801	108
20.8875	107
20.8949	134
20.9023	168
20.9097	146
20.9171	203
20.9245	224
20.9319	257
20.9393	287
20.9467	292
20.9541	316
20.9614	316
20.9688	329
20.9762	302
20.9836	309
20.9910	264
20.9984	249
21.0058	256
21.0132	228
21.0206	213
21.0280	171
21.0354	191
21.0428	150
21.0502	141
21.0576	122
21.0650	118
21.0724	97
21.0798	111
21.0872	111
21.0946	86
21.1020	100
21.1094	77
21.1167	101
21.1241	86
21.1315	69
21.1389	91
21.1463	66
21.1537	80
21.1611	79
21.1685	116
21.1759	76
21.1833	81
21.1907	77
21.1981	79
21.2055	94
21.2129	101
21.2203	85
21.2277	89
21.2351	79
21.2425	92
21.2499	88
21.2573	86
21.2647	99
21.2720	91
21.2794	101
21.2868	97
21.2942	100
21.3016	86
21.3090	92
21.3164	88
21.3238	75
21.3312	102
21.3386	84
21.3460	104
21.3534	109
21.3608	94
21.3682	104
21.3756	100
21.3830	124
21.3904	118
21.3978	117
21.4052	149
21.4126	135
21.4200	128
21.4273	146
21.4347	178
21.4421	176
21.4495	203
21.4569	238
21.4643	300
21.4717	331
21.4791	411
21.4865	458
21.4939	557
21.5013	616
21.5087	692
21.5161	654
21.5235	649
21.5309	637
21.5383	593
21.5457	585
21.5531	564
21.5605	560
21.5679	470
21.5753	459
21.5826	442
21.5900	381
21.5974	295
21.6048	344
21.6122	265
21.6196	243
21.6270	200
21.6344	192
21.6418	226
21.6492	217
21.6566	215
21.6640	253
21.6714	248
21.6788	271
21.6862	288
21.6936	329
21.7010	319
21.7084	327
21.7158	346
21.7232	376
21.7306	344
21.7379	346
21.7453	324
21.7527	320
21.7601	301
21.7675	333
21.7749	291
21.7823	296
21.7897	283
21.7971	266
21.8045	235
21.8119	222
21.8193	255
21.8267	228
21.8341	255
21.8415	262
21.8489	261
21.8563	305
21.8637	336
21.8711	365
21.8785	393
21.8859	478
21.8932	646
21.9006	768
21.9080	985
21.9154	1191
21.9228	1453
21.9302	1710
21.9376	2188
21.9450	2578
21.9524	2930
21.9598	3275
21.9672	3408
21.9746	3430
21.9820	3418
21.9894	3198
21.9968	2972
22.0042	2972
22.0116	2740
22.0190	2535
22.0264	2237
22.0338	2034
22.0412	1746
22.0485	1444
22.0559	1249
22.0633	1048
22.0707	747
22.0781	658
22.0855	506
22.0929	401
22.1003	367
22.1077	324
22.1151	279
22.1225	252
22.1299	206
22.1373	206
22.1447	174
22.1521	165
22.1595	174
22.1669	167
22.1743	151
22.1817	145
22.1891	126
22.1965	106
22.2039	147
22.2112	139
22.2186	142
22.2260	126
22.2334	120
22.2408	89
22.2482	121
22.2556	90
22.2630	115
22.2704	113
22.2778	118
22.2852	95
22.2926	103
22.3000	122
22.3074	97
22.3148	93
22.3222	112
22.3296	116
22.3370	91
22.3444	99
22.3518	109
22.3592	105
22.3665	94
22.3739	117
22.3813	91
22.3887	112
22.3961	104
22.4035	90
22.4109	102
22.4183	83
22.4257	95
22.4331	98
22.4405	80
22.4479	79
22.4553	98
22.4627	97
22.4701	103
22.4775	98
22.4849	82
22.4923	104
22.4997	81
22.5071	94
22.5145	78
22.5218	101
22.5292	77
22.5366	92
22.5440	88
22.5514	88
22.5588	86
22.5662	78
22.5736	89
22.5810	88
22.5884	85
22.5958	85
22.6032	79
22.6106	76
22.6180	96
22.6254	93
22.6328	82
22.6402	113
22.6476	99
22.6550	86
22.6624	105
22.6698	106
22.6771	129
22.6845	135
22.6919	147
22.6993	176
22.7067	191
22.7141	204
22.7215	283
22.7289	313
22.7363	343
22.7437	377
22.7511	410
22.7585	402
22.7659	437
22.7733	374
22.7807	377
22.7881	407
22.7955	327
22.8029	371
22.8103	355
22.8177	289
22.8251	280
22.8324	274
22.8398	253
22.8472	183
22.8546	202
22.8620	158
22.8694	161
22.8768	132
22.8842	120
22.8916	99
22.8990	95
22.9064	102
22.9138	104
22.9212	88
22.9286	91
22.9360	89
22.9434	103
22.9508	98
22.9582	84
22.9656	72
22.9730	88
22.9804	79
22.9877	84
22.9951	88
23.0025	95
23.0099	87
23.0173	77
23.0247	80
23.0321	80
23.0395	82
23.0469	72
23.0543	76
23.0617	74
23.0691	79
23.0765	95
23.0839	80
23.0913	86
23.0987	89
23.1061	71
23.1135	86
23.1209	78
23.1283	91
23.1357	77
23.1430	86
23.1504	84
23.1578	72
23.1652	87
23.1726	73
23.1800	86
23.1874	68
23.1948	72
23.2022	75
23.2096	83
23.2170	83
23.2244	81
23.2318	72
23.2392	71
23.2466	77
23.2540	81
23.2614	79
23.2688	71
23.2762	76
23.2836	79
23.2910	79
23.2983	79
23.3057	76
23.3131	102
23.3205	80
23.3279	73
23.3353	101
23.3427	81
23.3501	81
23.3575	92
23.3649	72
23.3723	90
23.3797	93
23.3871	89
23.3945	111
23.4019	121
23.4093	129
23.4167	110
23.4241	128
23.4315	153
23.4389	151
23.4463	184
23.4536	224
23.4610	225
23.4684	252
23.4758	277
23.4832	251
23.4906	297
23.4980	263
23.5054	277
23.5128	232
23.5202	255
23.5276	212
23.5350	238
23.5424	196
23.5498	208
23.5572	172
23.5646	160
23.5720	150
23.5794	179
23.5868	139
23.5942	137
23.6016	119
23.6089	117
23.6163	94
23.6237	98
23.6311	104
23.6385	99
23.6459	93
23.6533	85
23.6607	94
23.6681	86
23.6755	79
23.6829	67
23.6903	77
23.6977	90
23.7051	112
23.7125	109
23.7199	71
23.7273	99
23.7347	66
23.7421	93
23.7495	84
23.7569	80
23.7643	89
23.7716	96
23.7790	81
23.7864	80
23.7938	73
23.8012	95
23.8086	97
23.8160	95
23.8234	97
23.8308	89
23.8382	97
23.8456	96
23.8530	110
23.8604	125
23.8678	114
23.8752	144
23.8826	137
23.8900	143
23.8974	155
23.9048	161
23.9122	203
23.9196	200
23.9269	257
23.9343	252
23.9417	306
23.9491	362
23.9565	414
23.9639	476
23.9713	490
23.9787	545
23.9861	600
23.9935	615
24.0009	612
24.0083	591
24.0157	604
24.0231	502
24.0305	543
24.0379	534
24.0453	491
24.0527	455
24.0601	431
24.0675	396
24.0749	341
24.0822	310
24.0896	269
24.0970	245
24.1044	196
24.1118	190
24.1192	172
24.1266	166
24.1340	150
24.1414	129
24.1488	128
24.1562	121
24.1636	107
24.1710	112
24.1784	107
24.1858	95
24.1932	115
24.2006	127
24.2080	101
24.2154	107
24.2228	108
24.2302	110
24.2375	114
24.2449	113
24.2523	128
24.2597	140
24.2671	140
24.2745	164
24.2819	157
24.2893	176
24.2967	174
24.3041	224
24.3115	191
24.3189	213
24.3263	222
24.3337	237
24.3411	292
24.3485	307
24.3559	366
24.3633	402
24.3707	482
24.3781	506
24.3855	568
24.3928	561
24.4002	546
24.4076	550
24.4150	537
24.4224	503
24.4298	445
24.4372	430
24.4446	416
24.4520	404
24.4594	357
24.4668	315
24.4742	287
24.4816	260
24.4890	234
24.4964	221
24.5038	180
24.5112	158
24.5186	144
24.5260	130
24.5334	118
24.5408	104
24.5481	106
24.5555	113
24.5629	109
24.5703	106
24.5777	97
24.5851	91
24.5925	96
24.5999	105
24.6073	90
24.6147	95
24.6221	98
24.6295	96
24.6369	86
24.6443	96
24.6517	82
24.6591	102
24.6665	97
24.6739	93
24.6813	101
24.6887	116
24.6961	105
24.7034	131
24.7108	134
24.7182	136
24.7256	135
24.7330	157
24.7404	209
24.7478	214
24.7552	246
24.7626	269
24.7700	326
24.7774	356
24.7848	368
24.7922	397
24.7996	358
24.8070	390
24.8144	286
24.8218	284
24.8292	257
24.8366	277
24.8440	301
24.8514	261
24.8587	253
24.8661	199
24.8735	190
24.8809	164
24.8883	129
24.8957	133
24.9031	117
24.9105	94
24.9179	104
24.9253	92
24.9327	98
24.9401	85
24.9475	91
24.9549	93
24.9623	98
24.9697	91
24.9771	85
24.9845	94
24.9919	107
24.9993	90
25.0067	91
25.0140	91
25.0214	87
25.0288	86
25.0362	82
25.0436	77
25.0510	82
25.0584	77
25.0658	79
25.0732	95
25.0806	98
25.0880	85
25.0954	79
25.1028	76
25.1102	85
25.1176	74
25.1250	90
25.1324	64
25.1398	84
25.1472	86
25.1546	92
25.1620	93
25.1693	93
25.1767	80
25.1841	104
25.1915	75
25.1989	91
25.2063	82
25.2137	85
25.2211	87
25.2285	96
25.2359	81
25.2433	85
25.2507	101
25.2581	103
25.2655	107
25.2729	102
25.2803	84
25.2877	93
25.2951	87
25.3025	76
25.3099	87
25.3173	102
25.3247	89
25.3320	99
25.3394	110
25.3468	106
25.3542	110
25.3616	113
25.3690	108
25.3764	118
25.3838	139
25.3912	131
25.3986	163
25.4060	153
25.4134	208
25.4208	217
25.4282	284
25.4356	303
25.4430	377
25.4504	395
25.4578	510
25.4652	605
25.4726	648
25.4800	704
25.4873	681
25.4947	679
25.5021	769
25.5095	726
25.5169	665
25.5243	617
25.5317	601
25.5391	603
25.5465	572
25.5539	601
25.5613	525
25.5687	525
25.5761	502
25.5835	545
25.5909	571
25.5983	542
25.6057	629
25.6131	634
25.6205	666
25.6279	647
25.6353	600
25.6426	599
25.6500	537
25.6574	455
25.6648	443
25.6722	438
25.6796	441
25.6870	399
25.6944	400
25.7018	341
25.7092	304
25.7166	269
25.7240	229
25.7314	207
25.7388	155
25.7462	192
25.7536	166
25.7610	173
25.7684	152
25.7758	152
25.7832	162
25.7906	155
25.7979	187
25.8053	159
25.8127	187
25.8201	203
25.8275	222
25.8349	226
25.8423	211
25.8497	243
25.8571	213
25.8645	256
25.8719	235
25.8793	239
25.8867	233
25.8941	212
25.9015	213
25.9089	195
25.9163	196
25.9237	192
25.9311	177
25.9385	197
25.9459	167
25.9532	143
25.9606	142
25.9680	145
25.9754	134
25.9828	112
25.9902	121
25.9976	124
26.0050	115
26.0124	91
26.0198	116
26.0272	108
26.0346	85
26.0420	79
26.0494	92
26.0568	104
26.0642	113
26.0716	87
26.0790	110
26.0864	94
26.0938	91
26.1012	111
26.1085	89
26.1159	101
26.1233	119
26.1307	96
26.1381	103
26.1455	108
26.1529	91
26.1603	97
26.1677	93
26.1751	90
26.1825	79
26.1899	78
26.1973	86
26.2047	117
26.2121	96
26.2195	102
26.2269	98
26.2343	94
26.2417	95
26.2491	113
26.2565	119
26.2638	95
26.2712	98
26.2786	117
26.2860	97
26.2934	104
26.3008	110
26.3082	123
26.3156	122
26.3230	100
26.3304	147
26.3378	140
26.3452	125
26.3526	136
26.3600	124
26.3674	139
26.3748	146
26.3822	149
26.3896	179
26.3970	170
26.4044	212
26.4118	249
26.4191	259
26.4265	275
26.4339	319
26.4413	375
26.4487	433
26.4561	478
26.4635	591
26.4709	645
26.4783	742
26.4857	850
26.4931	957
26.5005	1115
26.5079	1248
26.5153	1399
26.5227	1413
26.5301	1453
26.5375	1507
26.5449	1470
26.5523	1375
26.5597	1362
26.5671	1302
26.5744	1147
26.5818	1112
26.5892	1067
26.5966	999
26.6040	985
26.6114	836
26.6188	721
26.6262	646
26.6336	568
26.6410	520
26.6484	424
26.6558	361
26.6632	328
26.6706	276
26.6780	242
26.6854	193
26.6928	212
26.7002	194
26.7076	165
26.7150	151
26.7224	133
26.7297	138
26.7371	113
26.7445	136
26.7519	120
26.7593	114
26.7667	107
26.7741	121
26.7815	123
26.7889	121
26.7963	118
26.8037	94
26.8111	88
26.8185	103
26.8259	83
26.8333	123
26.8407	108
26.8481	97
26.8555	105
26.8629	111
26.8703	88
26.8777	101
26.8850	99
26.8924	100
26.8998	95
26.9072	106
26.9146	87
26.9220	106
26.9294	95
26.9368	98
26.9442	94
26.9516	107
26.9590	92
26.9664	98
26.9738	112
26.9812	91
26.9886	93
26.9960	93
27.0034	93
27.0108	89
27.0182	96
27.0256	97
27.0330	115
27.0404	90
27.0477	93
27.0551	88
27.0625	96
27.0699	105
27.0773	81
27.0847	90
27.0921	95
27.0995	81
27.1069	91
27.1143	86
27.1217	88
27.1291	83
27.1365	101
27.1439	93
27.1513	88
27.1587	91
27.1661	95
27.1735	80
27.1809	86
27.1883	94
27.1957	95
27.2030	90
27.2104	95
27.2178	110
27.2252	86
27.2326	87
27.2400	95
27.2474	90
27.2548	90
27.2622	92
27.2696	97
27.2770	100
27.2844	101
27.2918	84
27.2992	111
27.3066	107
27.3140	103
27.3214	114
27.3288	112
27.3362	123
27.3436	121
27.3510	125
27.3583	139
27.3657	159
27.3731	177
27.3805	175
27.3879	196
27.3953	236
27.4027	247
27.4101	327
27.4175	306
27.4249	354
27.4323	438
27.4397	485
27.4471	546
27.4545	585
27.4619	641
27.4693	648
27.4767	702
27.4841	696
27.4915	710
27.4989	590
27.5063	589
27.5136	638
27.5210	575
27.5284	565
27.5358	505
27.5432	476
27.5506	440
27.5580	436
27.5654	423
27.5728	355
27.5802	309
27.5876	256
27.5950	265
27.6024	227
27.6098	224
27.6172	190
27.6246	182
27.6320	179
27.6394	174
27.6468	168
27.6542	148
27.6616	156
27.6689	134
27.6763	132
27.6837	134
27.6911	140
27.6985	101
27.7059	115
27.7133	106
27.7207	109
27.7281	99
27.7355	83
27.7429	107
27.7503	101
27.7577	81
27.7651	89
27.7725	88
27.7799	91
27.7873	83
27.7947	97
27.8021	85
27.8095	78
27.8169	86
27.8242	101
27.8316	72
27.8390	97
27.8464	82
27.8538	86
27.8612	71
27.8686	87
27.8760	97
27.8834	88
27.8908	95
27.8982	102
27.9056	81
27.9130	88
27.9204	80
27.9278	68
27.9352	92
27.9426	69
27.9500	73
27.9574	81
27.9648	85
27.9722	81
27.9795	88
27.9869	82
27.9943	86
28.0017	82
28.0091	85
28.0165	87
28.0239	103
28.0313	81
28.0387	80
28.0461	95
28.0535	83
28.0609	101
28.0683	94
28.0757	85
28.0831	85
28.0905	94
28.0979	65
28.1053	93
28.1127	88
28.1201	96
28.1275	89
28.1348	83
28.1422	86
28.1496	86
28.1570	72
28.1644	90
28.1718	88
28.1792	94
28.1866	66
28.1940	84
28.2014	65
28.2088	101
28.2162	83
28.2236	87
28.2310	85
28.2384	66
28.2458	104
28.2532	87
28.2606	88
28.2680	92
28.2754	118
28.2828	93
28.2901	90
28.2975	111
28.3049	101
28.3123	104
28.3197	98
28.3271	111
28.3345	123
28.3419	106
28.3493	152
28.3567	152
28.3641	179
28.3715	172
28.3789	193
28.3863	198
28.3937	269
28.4011	292
28.4085	330
28.4159	362
28.4233	355
28.4307	453
28.4381	484
28.4454	489
28.4528	473
28.4602	508
28.4676	446
28.4750	481
28.4824	441
28.4898	434
28.4972	413
28.5046	402
28.5120	359
28.5194	371
28.5268	352
28.5342	329
28.5416	275
28.5490	249
28.5564	232
28.5638	215
28.5712	186
28.5786	190
28.5860	131
28.5934	144
28.6008	142
28.6081	139
28.6155	111
28.6229	108
28.6303	112
28.6377	98
28.6451	102
28.6525	96
28.6599	77
28.6673	89
28.6747	89
28.6821	75
28.6895	80
28.6969	86
28.7043	86
28.7117	96
28.7191	101
28.7265	89
28.7339	76
28.7413	82
28.7487	72
28.7561	83
28.7634	84
28.7708	97
28.7782	93
28.7856	71
28.7930	121
28.8004	90
28.8078	101
28.8152	89
28.8226	96
28.8300	78
28.8374	79
28.8448	106
28.8522	95
28.8596	94
28.8670	101
28.8744	84
28.8818	136
28.8892	114
28.8966	144
28.9040	161
28.9114	139
28.9187	141
28.9261	141
28.9335	137
28.9409	142
28.9483	169
28.9557	154
28.9631	172
28.9705	202
28.9779	208
28.9853	258
28.9927	265
29.0001	270
29.0075	332
29.0149	299
29.0223	316
29.0297	329
29.0371	301
29.0445	287
29.0519	280
29.0593	245
29.0667	259
29.0740	231
29.0814	241
29.0888	200
29.0962	206
29.1036	213
29.1110	183
29.1184	188
29.1258	156
29.1332	151
29.1406	134
29.1480	94
29.1554	117
29.1628	102
29.1702	95
29.1776	105
29.1850	86
29.1924	83
29.1998	66
29.2072	63
29.2146	86
29.2220	70
29.2293	60
29.2367	72
29.2441	70
29.2515	95
29.2589	97
29.2663	87
29.2737	84
29.2811	81
29.2885	71
29.2959	71
29.3033	70
29.3107	78
29.3181	56
29.3255	71
29.3329	82
29.3403	60
29.3477	76
29.3551	74
29.3625	66
29.3699	78
29.3773	69
29.3846	76
29.3920	60
29.3994	70
29.4068	62
29.4142	74
29.4216	74
29.4290	60
29.4364	73
29.4438	63
29.4512	79
29.4586	72
29.4660	71
29.4734	78
29.4808	80
29.4882	90
29.4956	76
29.5030	74
29.5104	68
29.5178	91
29.5252	75
29.5326	88
29.5399	78
29.5473	110
29.5547	89
29.5621	81
29.5695	92
29.5769	83
29.5843	83
29.5917	89
29.5991	83
29.6065	63
29.6139	92
29.6213	96
29.6287	76
29.6361	75
29.6435	70
29.6509	90
29.6583	75
29.6657	82
29.6731	83
29.6805	66
29.6879	60
29.6952	80
29.7026	62
29.7100	76
29.7174	69
29.7248	73
29.7322	64
29.7396	79
29.7470	88
29.7544	93
29.7618	66
29.7692	62
29.7766	83
29.7840	69
29.7914	76
29.7988	67
29.8062	61
29.8136	72
29.8210	71
29.8284	70
29.8358	84
29.8432	67
29.8505	68
29.8579	82
29.8653	63
29.8727	65
29.8801	77
29.8875	74
29.8949	81
29.9023	73
29.9097	75
29.9171	92
29.9245	59
29.9319	50
29.9393	79
29.9467	65
29.9541	52
29.9615	63
29.9689	77
29.9763	63
29.9837	68
29.9911	52
29.9985	74
30.0058	65
30.0132	73
30.0206	53
30.0280	75
30.0354	83
30.0428	67
30.0502	72
30.0576	67
30.0650	83
30.0724	73
30.0798	93
30.0872	64
30.0946	62
30.1020	67
30.1094	76
30.1168	68
30.1242	81
30.1316	60
30.1390	72
30.1464	73
30.1538	78
30.1612	68
30.1685	66
30.1759	80
30.1833	56
30.1907	79
30.1981	73
30.2055	65
30.2129	81
30.2203	81
30.2277	76
30.2351	64
30.2425	57
30.2499	71
30.2573	63
30.2647	89
30.2721	62
30.2795	50
30.2869	65
30.2943	69
30.3017	76
30.3091	48
30.3165	73
30.3238	77
30.3312	78
30.3386	74
30.3460	60
30.3534	59
30.3608	58
30.3682	74
30.3756	62
30.3830	74
30.3904	59
30.3978	79
30.4052	60
30.4126	52
30.4200	61
30.4274	70
30.4348	69
30.4422	67
30.4496	83
30.4570	69
30.4644	95
30.4718	74
30.4791	88
30.4865	91
30.4939	101
30.5013	100
30.5087	99
30.5161	107
30.5235	111
30.5309	129
30.5383	100
30.5457	101
30.5531	114
30.5605	98
30.5679	85
30.5753	97
30.5827	93
30.5901	95
30.5975	101
30.6049	121
30.6123	79
30.6197	103
30.6271	105
30.6344	103
30.6418	93
30.6492	116
30.6566	105
30.6640	100
30.6714	89
30.6788	84
30.6862	107
30.6936	98
30.7010	91
30.7084	89
30.7158	86
30.7232	82
30.7306	82
30.7380	86
30.7454	86
30.7528	73
30.7602	90
30.7676	103
30.7750	63
30.7824	86
30.7897	73
30.7971	81
30.8045	76
30.8119	60
30.8193	77
30.8267	64
30.8341	78
30.8415	68
30.8489	75
30.8563	65
30.8637	62
30.8711	63
30.8785	68
30.8859	72
30.8933	63
30.9007	81
30.9081	77
30.9155	67
30.9229	81
30.9303	54
30.9377	62
30.9450	70
30.9524	83
30.9598	65
30.9672	69
30.9746	72
30.9820	67
30.9894	71
30.9968	56
31.0042	65
31.0116	64
31.0190	62
31.0264	64
31.0338	60
31.0412	63
31.0486	63
31.0560	67
31.0634	66
31.0708	71
31.0782	71
31.0856	55
31.0930	67
31.1003	71
31.1077	68
31.1151	76
31.1225	75
31.1299	71
31.1373	72
31.1447	76
31.1521	56
31.1595	77
31.1669	50
31.1743	55
31.1817	73
31.1891	71
31.1965	68
31.2039	72
31.2113	79
31.2187	73
31.2261	69
31.2335	73
31.2409	81
31.2483	58
31.2556	76
31.2630	77
31.2704	69
31.2778	80
31.2852	83
31.2926	87
31.3000	88
31.3074	78
31.3148	87
31.3222	106
31.3296	85
31.3370	100
31.3444	94
31.3518	113
31.3592	91
31.3666	96
31.3740	130
31.3814	140
31.3888	124
31.3962	121
31.4036	153
31.4109	163
31.4183	148
31.4257	162
31.4331	156
31.4405	160
31.4479	171
31.4553	185
31.4627	175
31.4701	163
31.4775	158
31.4849	158
31.4923	165
31.4997	155
31.5071	149
31.5145	158
31.5219	132
31.5293	117
31.5367	117
31.5441	136
31.5515	138
31.5589	137
31.5662	123
31.5736	126
31.5810	119
31.5884	137
31.5958	142
31.6032	128
31.6106	97
31.6180	103
31.6254	86
31.6328	109
31.6402	110
31.6476	107
31.6550	91
31.6624	104
31.6698	117
31.6772	102
31.6846	89
31.6920	105
31.6994	88
31.7068	87
31.7142	81
31.7215	85
31.7289	80
31.7363	83
31.7437	86
31.7511	86
31.7585	81
31.7659	92
31.7733	87
31.7807	97
31.7881	71
31.7955	58
31.8029	86
31.8103	75
31.8177	70
31.8251	80
31.8325	86
31.8399	71
31.8473	70
31.8547	96
31.8621	100
31.8695	105
31.8769	84
31.8842	98
31.8916	116
31.8990	106
31.9064	124
31.9138	111
31.9212	98
31.9286	102
31.9360	108
31.9434	117
31.9508	120
31.9582	112
31.9656	104
31.9730	112
31.9804	113
31.9878	100
31.9952	97
32.0026	111
32.0100	100
32.0174	103
32.0248	73
32.0322	109
32.0395	91
32.0469	92
32.0543	93
32.0617	87
32.0691	74
32.0765	84
32.0839	72
32.0913	81
32.0987	64
32.1061	61
32.1135	72
32.1209	50
32.1283	87
32.1357	71
32.1431	74
32.1505	63
32.1579	71
32.1653	90
32.1727	72
32.1801	63
32.1875	60
32.1948	61
32.2022	74
32.2096	68
32.2170	75
32.2244	50
32.2318	57
32.2392	61
32.2466	53
32.2540	55
32.2614	73
32.2688	87
32.2762	75
32.2836	61
32.2910	46
32.2984	69
32.3058	65
32.3132	67
32.3206	84
32.3280	63
32.3354	84
32.3428	62
32.3501	56
32.3575	60
32.3649	70
32.3723	75
32.3797	57
32.3871	73
32.3945	75
32.4019	58
32.4093	62
32.4167	80
32.4241	66
32.4315	64
32.4389	55
32.4463	61
32.4537	69
32.4611	65
32.4685	63
32.4759	86
32.4833	71
32.4907	84
32.4981	67
32.5054	70
32.5128	61
32.5202	67
32.5276	83
32.5350	90
32.5424	79
32.5498	82
32.5572	67
32.5646	84
32.5720	92
32.5794	62
32.5868	88
32.5942	80
32.6016	84
32.6090	96
32.6164	99
32.6238	107
32.6312	115
32.6386	99
32.6460	95
32.6534	124
32.6607	105
32.6681	84
32.6755	93
32.6829	89
32.6903	89
32.6977	77
32.7051	81
32.7125	67
32.7199	75
32.7273	78
32.7347	68
32.7421	62
32.7495	69
32.7569	67
32.7643	68
32.7717	82
32.7791	80
32.7865	69
32.7939	68
32.8013	77
32.8087	64
32.8160	74
32.8234	59
32.8308	61
32.8382	78
32.8456	79
32.8530	61
32.8604	90
32.8678	65
32.8752	72
32.8826	74
32.8900	92
32.8974	58
32.9048	89
32.9122	72
32.9196	95
32.9270	70
32.9344	92
32.9418	76
32.9492	74
32.9566	62
32.9640	64
32.9713	65
32.9787	67
32.9861	65
32.9935	67
33.0009	81
33.0083	84
33.0157	62
33.0231	77
33.0305	61
33.0379	64
33.0453	76
33.0527	57
33.0601	66
33.0675	72
33.0749	75
33.0823	61
33.0897	51
33.0971	66
33.1045	69
33.1119	68
33.1193	70
33.1266	58
33.1340	70
33.1414	65
33.1488	55
33.1562	64
33.1636	70
33.1710	58
33.1784	70
33.1858	85
33.1932	68
33.2006	80
33.2080	73
33.2154	67
33.2228	78
33.2302	66
33.2376	64
33.2450	85
33.2524	79
33.2598	89
33.2672	75
33.2746	90
33.2819	87
33.2893	101
33.2967	97
33.3041	82
33.3115	91
33.3189	91
33.3263	79
33.3337	110
33.3411	98
33.3485	75
33.3559	81
33.3633	100
33.3707	95
33.3781	107
33.3855	96
33.3929	86
33.4003	98
33.4077	104
33.4151	118
33.4225	102
33.4299	112
33.4373	110
33.4446	119
33.4520	121
33.4594	128
33.4668	130
33.4742	153
33.4816	150
33.4890	166
33.4964	157
33.5038	171
33.5112	213
33.5186	216
33.5260	217
33.5334	275
33.5408	294
33.5482	293
33.5556	291
33.5630	287
33.5704	299
33.5778	279
33.5852	303
33.5926	273
33.5999	316
33.6073	277
33.6147	272
33.6221	269
33.6295	273
33.6369	285
33.6443	259
33.6517	238
33.6591	210
33.6665	190
33.6739	215
33.6813	201
33.6887	204
33.6961	162
33.7035	173
33.7109	149
33.7183	143
33.7257	143
33.7331	133
33.7405	121
33.7479	105
33.7552	105
33.7626	100
33.7700	97
33.7774	78
33.7848	68
33.7922	75
33.7996	68
33.8070	79
33.8144	80
33.8218	76
33.8292	73
33.8366	83
33.8440	71
33.8514	79
33.8588	103
33.8662	78
33.8736	90
33.8810	72
33.8884	84
33.8958	81
33.9032	76
33.9105	94
33.9179	93
33.9253	78
33.9327	74
33.9401	78
33.9475	101
33.9549	102
33.9623	97
33.9697	103
33.9771	98
33.9845	95
33.9919	104
33.9993	90
34.0067	85
34.0141	109
34.0215	111
34.0289	115
34.0363	88
34.0437	86
34.0511	123
34.0585	107
34.0658	108
34.0732	103
34.0806	90
34.0880	108
34.0954	118
34.1028	134
34.1102	128
34.1176	121
34.1250	95
34.1324	105
34.1398	104
34.1472	117
34.1546	99
34.1620	91
34.1694	100
34.1768	105
34.1842	82
34.1916	76
34.1990	90
34.2064	84
34.2138	82
34.2211	77
34.2285	78
34.2359	73
34.2433	60
34.2507	50
34.2581	84
34.2655	59
34.2729	69
34.2803	54
34.2877	75
34.2951	69
34.3025	65
34.3099	71
34.3173	64
34.3247	75
34.3321	74
34.3395	70
34.3469	64
34.3543	70
34.3617	73
34.3691	62
34.3764	74
34.3838	75
34.3912	72
34.3986	64
34.4060	61
34.4134	69
34.4208	70
34.4282	57
34.4356	62
34.4430	69
34.4504	80
34.4578	64
34.4652	74
34.4726	68
34.4800	61
34.4874	65
34.4948	55
34.5022	69
34.5096	58
34.5170	80
34.5244	83
34.5317	69
34.5391	60
34.5465	83
34.5539	76
34.5613	65
34.5687	57
34.5761	71
34.5835	66
34.5909	62
34.5983	67
34.6057	56
34.6131	72
34.6205	65
34.6279	73
34.6353	46
34.6427	63
34.6501	71
34.6575	57
34.6649	76
34.6723	65
34.6797	59
34.6870	67
34.6944	68
34.7018	65
34.7092	79
34.7166	63
34.7240	61
34.7314	68
34.7388	50
34.7462	62
34.7536	84
34.7610	59
34.7684	63
34.7758	65
34.7832	75
34.7906	80
34.7980	64
34.8054	63
34.8128	65
34.8202	83
34.8276	71
34.8350	75
34.8423	67
34.8497	79
34.8571	77
34.8645	74
34.8719	64
34.8793	73
34.8867	74
34.8941	77
34.9015	66
34.9089	67
34.9163	70
34.9237	69
34.9311	54
34.9385	77
34.9459	65
34.9533	87
34.9607	75
34.9681	71
34.9755	83
34.9829	83
34.9903	71
34.9977	80
35.0050	81
35.0124	86
35.0198	80
35.0272	84
35.0346	79
35.0420	81
35.0494	67
35.0568	85
35.0642	80
35.0716	81
35.0790	82
35.0864	92
35.0938	83
35.1012	103
35.1086	86
35.1160	92
35.1234	82
35.1308	91
35.1382	99
35.1456	98
35.1530	109
35.1603	118
35.1677	124
35.1751	87
35.1825	81
35.1899	102
35.1973	105
35.2047	108
35.2121	101
35.2195	90
35.2269	77
35.2343	104
35.2417	78
35.2491	99
35.2565	92
35.2639	79
35.2713	93
35.2787	85
35.2861	81
35.2935	79
35.3009	80
35.3083	95
35.3156	74
35.3230	72
35.3304	57
35.3378	66
35.3452	74
35.3526	67
35.3600	91
35.3674	65
35.3748	74
35.3822	76
35.3896	79
35.3970	87
35.4044	73
35.4118	77
35.4192	73
35.4266	83
35.4340	86
35.4414	73
35.4488	86
35.4562	80
35.4636	89
35.4709	111
35.4783	83
35.4857	105
35.4931	91
35.5005	102
35.5079	78
35.5153	83
35.5227	93
35.5301	76
35.5375	96
35.5449	95
35.5523	88
35.5597	107
35.5671	90
35.5745	99
35.5819	75
35.5893	87
35.5967	79
35.6041	86
35.6115	91
35.6189	70
35.6262	73
35.6336	86
35.6410	77
35.6484	69
35.6558	59
35.6632	73
35.6706	72
35.6780	74
35.6854	63
35.6928	75
35.7002	79
35.7076	55
35.7150	56
35.7224	67
35.7298	60
35.7372	62
35.7446	61
35.7520	63
35.7594	76
35.7668	74
35.7742	73
35.7815	45
35.7889	70
35.7963	80
35.8037	72
35.8111	73
35.8185	59
35.8259	79
35.8333	77
35.8407	57
35.8481	84
35.8555	68
35.8629	75
35.8703	76
35.8777	80
35.8851	78
35.8925	86
35.8999	78
35.9073	49
35.9147	63
35.9221	79
35.9295	71
35.9368	85
35.9442	94
35.9516	76
35.9590	97
35.9664	88
35.9738	78
35.9812	93
35.9886	91
35.9960	87
36.0034	120
36.0108	125
36.0182	129
36.0256	145
36.0330	166
36.0404	176
36.0478	162
36.0552	202
36.0626	165
36.0700	187
36.0774	205
36.0848	183
36.0921	178
36.0995	212
36.1069	169
36.1143	187
36.1217	180
36.1291	174
36.1365	188
36.1439	185
36.1513	190
36.1587	170
36.1661	175
36.1735	182
36.1809	194
36.1883	185
36.1957	161
36.2031	167
36.2105	182
36.2179	153
36.2253	143
36.2327	118
36.2401	138
36.2474	140
36.2548	128
36.2622	135
36.2696	145
36.2770	121
36.2844	125
36.2918	108
36.2992	131
36.3066	129
36.3140	135
36.3214	152
36.3288	170
36.3362	143
36.3436	168
36.3510	142
36.3584	162
36.3658	160
36.3732	131
36.3806	130
36.3880	131
36.3954	112
36.4027	121
36.4101	132
36.4175	113
36.4249	110
36.4323	106
36.4397	106
36.4471	107
36.4545	99
36.4619	111
36.4693	105
36.4767	92
36.4841	93
36.4915	81
36.4989	81
36.5063	78
36.5137	73
36.5211	72
36.5285	91
36.5359	76
36.5433	76
36.5507	78
36.5580	70
36.5654	63
36.5728	80
36.5802	67
36.5876	62
36.5950	72
36.6024	80
36.6098	77
36.6172	82
36.6246	58
36.6320	59
36.6394	72
36.6468	56
36.6542	71
36.6616	78
36.6690	69
36.6764	73
36.6838	73
36.6912	73
36.6986	76
36.7060	71
36.7134	81
36.7207	63
36.7281	68
36.7355	79
36.7429	73
36.7503	75
36.7577	72
36.7651	72
36.7725	57
36.7799	57
36.7873	68
36.7947	69
36.8021	82
36.8095	59
36.8169	75
36.8243	72
36.8317	56
36.8391	74
36.8465	68
36.8539	66
36.8613	70
36.8687	67
36.8760	67
36.8834	61
36.8908	89
36.8982	55
36.9056	70
36.9130	51
36.9204	82
36.9278	67
36.9352	60
36.9426	61
36.9500	67
36.9574	61
36.9648	72
36.9722	80
36.9796	69
36.9870	65
36.9944	60
37.0018	62
37.0092	87
37.0166	75
37.0240	75
37.0313	78
37.0387	83
37.0461	76
37.0535	62
37.0609	58
37.0683	58
37.0757	69
37.0831	73
37.0905	84
37.0979	74
37.1053	93
37.1127	89
37.1201	86
37.1275	98
37.1349	74
37.1423	96
37.1497	106
37.1571	105
37.1645	113
37.1719	106
37.1793	117
37.1866	113
37.1940	98
37.2014	92
37.2088	99
37.2162	84
37.2236	96
37.2310	82
37.2384	99
37.2458	104
37.2532	76
37.2606	90
37.2680	80
37.2754	83
37.2828	79
37.2902	81
37.2976	97
37.3050	84
37.3124	73
37.3198	79
37.3272	79
37.3346	70
37.3419	69
37.3493	73
37.3567	65
37.3641	68
37.3715	75
37.3789	76
37.3863	59
37.3937	65
37.4011	62
37.4085	71
37.4159	71
37.4233	81
37.4307	60
37.4381	70
37.4455	76
37.4529	68
37.4603	90
37.4677	71
37.4751	68
37.4825	73
37.4899	71
37.4972	73
37.5046	71
37.5120	89
37.5194	75
37.5268	76
37.5342	67
37.5416	77
37.5490	69
37.5564	94
37.5638	89
37.5712	91
37.5786	85
37.5860	89
37.5934	106
37.6008	89
37.6082	93
37.6156	99
37.6230	103
37.6304	103
37.6378	111
37.6452	123
37.6525	145
37.6599	155
37.6673	146
37.6747	156
37.6821	131
37.6895	131
37.6969	159
37.7043	127
37.7117	141
37.7191	139
37.7265	145
37.7339	132
37.7413	130
37.7487	157
37.7561	125
37.7635	134
37.7709	112
37.7783	107
37.7857	123
37.7931	108
37.8005	105
37.8078	114
37.8152	114
37.8226	101
37.8300	86
37.8374	104
37.8448	91
37.8522	94
37.8596	85
37.8670	78
37.8744	79
37.8818	74
37.8892	86
37.8966	76
37.9040	68
37.9114	73
37.9188	81
37.9262	82
37.9336	78
37.9410	61
37.9484	84
37.9558	59
37.9631	79
37.9705	75
37.9779	66
37.9853	73
37.9927	68
38.0001	66
38.0075	76
38.0149	61
38.0223	69
38.0297	66
38.0371	64
38.0445	69
38.0519	81
38.0593	72
38.0667	62
38.0741	73
38.0815	61
38.0889	61
38.0963	68
38.1037	74
38.1111	79
38.1184	67
38.1258	80
38.1332	97
38.1406	75
38.1480	65
38.1554	68
38.1628	69
38.1702	68
38.1776	82
38.1850	79
38.1924	72
38.1998	76
38.2072	81
38.2146	76
38.2220	77
38.2294	70
38.2368	81
38.2442	83
38.2516	100
38.2590	100
38.2664	85
38.2738	70
38.2811	75
38.2885	89
38.2959	86
38.3033	101
38.3107	96
38.3181	115
38.3255	109
38.3329	100
38.3403	103
38.3477	96
38.3551	96
38.3625	95
38.3699	104
38.3773	108
38.3847	101
38.3921	89
38.3995	91
38.4069	106
38.4143	114
38.4217	119
38.4291	114
38.4364	81
38.4438	99
38.4512	110
38.4586	87
38.4660	93
38.4734	101
38.4808	99
38.4882	128
38.4956	137
38.5030	119
38.5104	134
38.5178	145
38.5252	119
38.5326	136
38.5400	116
38.5474	103
38.5548	122
38.5622	84
38.5696	78
38.5770	89
38.5844	84
38.5917	84
38.5991	106
38.6065	97
38.6139	106
38.6213	103
38.6287	126
38.6361	93
38.6435	99
38.6509	76
38.6583	94
38.6657	68
38.6731	78
38.6805	67
38.6879	59
38.6953	79
38.7027	83
38.7101	65
38.7175	62
38.7249	69
38.7323	79
38.7397	69
38.7470	79
38.7544	84
38.7618	63
38.7692	82
38.7766	59
38.7840	77
38.7914	64
38.7988	76
38.8062	72
38.8136	83
38.8210	70
38.8284	79
38.8358	78
38.8432	80
38.8506	77
38.8580	67
38.8654	69
38.8728	73
38.8802	68
38.8876	72
38.8950	70
38.9023	69
38.9097	70
38.9171	69
38.9245	67
38.9319	61
38.9393	66
38.9467	66
38.9541	70
38.9615	75
38.9689	53
38.9763	70
38.9837	73
38.9911	63
38.9985	67
39.0059	80
39.0133	63
39.0207	71
39.0281	69
39.0355	63
39.0429	78
39.0503	80
39.0576	70
39.0650	76
39.0724	77
39.0798	78
39.0872	60
39.0946	76
39.1020	73
39.1094	102
39.1168	85
39.1242	100
39.1316	84
39.1390	89
39.1464	95
39.1538	72
39.1612	88
39.1686	102
39.1760	81
39.1834	88
39.1908	76
39.1982	87
39.2056	110
39.2129	104
39.2203	116
39.2277	118
39.2351	114
39.2425	116
39.2499	121
39.2573	148
39.2647	151
39.2721	155
39.2795	163
39.2869	187
39.2943	189
39.3017	161
39.3091	156
39.3165	165
39.3239	182
39.3313	162
39.3387	178
39.3461	154
39.3535	156
39.3609	142
39.3682	148
39.3756	173
39.3830	163
39.3904	164
39.3978	179
39.4052	202
39.4126	217
39.4200	178
39.4274	169
39.4348	192
39.4422	165
39.4496	171
39.4570	163
39.4644	152
39.4718	151
39.4792	135
39.4866	149
39.4940	139
39.5014	140
39.5088	141
39.5162	146
39.5235	135
39.5309	142
39.5383	141
39.5457	129
39.5531	147
39.5605	131
39.5679	131
39.5753	107
39.5827	141
39.5901	120
39.5975	111
39.6049	123
39.6123	126
39.6197	122
39.6271	105
39.6345	89
39.6419	120
39.6493	102
39.6567	98
39.6641	94
39.6715	86
39.6788	84
39.6862	77
39.6936	84
39.7010	92
39.7084	106
39.7158	92
39.7232	67
39.7306	74
39.7380	64
39.7454	98
39.7528	87
39.7602	69
39.7676	93
39.7750	79
39.7824	95
39.7898	76
39.7972	104
39.8046	90
39.8120	94
39.8194	99
39.8268	105
39.8342	105
39.8415	114
39.8489	103
39.8563	103
39.8637	73
39.8711	90
39.8785	83
39.8859	106
39.8933	87
39.9007	84
39.9081	86
39.9155	77
39.9229	68
39.9303	87
39.9377	82
39.9451	89
39.9525	76
39.9599	78
39.9673	85
39.9747	81
39.9821	83
39.9895	66
39.9968	94
