2.0000	131
2.0074	135
2.0148	147
2.0222	156
2.0296	128
2.0370	143
2.0444	147
2.0518	164
2.0592	135
2.0666	175
2.0740	133
2.0813	143
2.0887	139
2.0961	122
2.1035	150
2.1109	164
2.1183	152
2.1257	141
2.1331	151
2.1405	165
2.1479	131
2.1553	140
2.1627	153
2.1701	159
2.1775	163
2.1849	153
2.1923	152
2.1997	144
2.2071	143
2.2145	159
2.2219	145
2.2293	146
2.2366	146
2.2440	138
2.2514	150
2.2588	165
2.2662	141
2.2736	131
2.2810	156
2.2884	124
2.2958	145
2.3032	135
2.3106	156
2.3180	136
2.3254	170
2.3328	132
2.3402	125
2.3476	132
2.3550	140
2.3624	129
2.3698	155
2.3772	155
2.3846	141
2.3919	150
2.3993	123
2.4067	117
2.4141	124
2.4215	145
2.4289	136
2.4363	140
2.4437	144
2.4511	139
2.4585	138
2.4659	141
2.4733	141
2.4807	109
2.4881	133
2.4955	147
2.5029	143
2.5103	149
2.5177	120
2.5251	120
2.5325	117
2.5399	142
2.5472	127
2.5546	121
2.5620	139
2.5694	129
2.5768	135
2.5842	125
2.5916	133
2.5990	107
2.6064	118
2.6138	133
2.6212	146
2.6286	118
2.6360	113
2.6434	130
2.6508	119
2.6582	152
2.6656	126
2.6730	130
2.6804	118
2.6878	126
2.6952	118
2.7025	140
2.7099	122
2.7173	113
2.7247	150
2.7321	130
2.7395	140
2.7469	120
2.7543	132
2.7617	129
2.7691	126
2.7765	124
2.7839	136
2.7913	138
2.7987	122
2.8061	109
2.8135	129
2.8209	116
2.8283	142
2.8357	133
2.8431	134
2.8505	132
2.8579	125
2.8652	97
2.8726	110
2.8800	122
2.8874	128
2.8948	129
2.9022	116
2.9096	127
2.9170	138
2.9244	127
2.9318	106
2.9392	116
2.9466	131
2.9540	133
2.9614	132
2.9688	123
2.9762	128
2.9836	126
2.9910	119
2.9984	112
3.0058	119
3.0132	124
3.0205	125
3.0279	130
3.0353	117
3.0427	114
3.0501	113
3.0575	129
3.0649	117
3.0723	128
3.0797	132
3.0871	106
3.0945	100
3.1019	116
3.1093	114
3.1167	132
3.1241	107
3.1315	114
3.1389	128
3.1463	106
3.1537	124
3.1611	105
3.1685	125
3.1758	122
3.1832	114
3.1906	130
3.1980	105
3.2054	124
3.2128	108
3.2202	90
3.2276	115
3.2350	111
3.2424	114
3.2498	109
3.2572	100
3.2646	125
3.2720	108
3.2794	105
3.2868	98
3.2942	102
3.3016	121
3.3090	123
3.3164	110
3.3238	104
3.3311	94
3.3385	114
3.3459	123
3.3533	121
3.3607	95
3.3681	92
3.3755	111
3.3829	115
3.3903	91
3.3977	110
3.4051	98
3.4125	98
3.4199	90
3.4273	114
3.4347	83
3.4421	99
3.4495	122
3.4569	100
3.4643	113
3.4717	111
3.4791	120
3.4864	93
3.4938	95
3.5012	99
3.5086	108
3.5160	89
3.5234	113
3.5308	109
3.5382	94
3.5456	94
3.5530	99
3.5604	126
3.5678	106
3.5752	111
3.5826	92
3.5900	93
3.5974	104
3.6048	87
3.6122	91
3.6196	86
3.6270	93
3.6344	99
3.6417	109
3.6491	116
3.6565	98
3.6639	82
3.6713	93
3.6787	91
3.6861	90
3.6935	84
3.7009	107
3.7083	94
3.7157	88
3.7231	78
3.7305	93
3.7379	96
3.7453	106
3.7527	86
3.7601	104
3.7675	98
3.7749	97
3.7823	88
3.7897	90
3.7970	87
3.8044	91
3.8118	100
3.8192	89
3.8266	104
3.8340	95
3.8414	83
3.8488	103
3.8562	98
3.8636	93
3.8710	95
3.8784	71
3.8858	93
3.8932	100
3.9006	107
3.9080	82
3.9154	86
3.9228	82
3.9302	86
3.9376	100
3.9450	97
3.9523	97
3.9597	83
3.9671	81
3.9745	89
3.9819	88
3.9893	85
3.9967	98
4.0041	81
4.0115	96
4.0189	81
4.0263	88
4.0337	93
4.0411	83
4.0485	92
4.0559	89
4.0633	79
4.0707	91
4.0781	83
4.0855	85
4.0929	78
4.1003	76
4.1076	63
4.1150	61
4.1224	81
4.1298	85
4.1372	87
4.1446	86
4.1520	69
4.1594	82
4.1668	77
4.1742	71
4.1816	84
4.1890	74
4.1964	71
4.2038	82
4.2112	83
4.2186	85
4.2260	87
4.2334	81
4.2408	83
4.2482	88
4.2556	86
4.2629	78
4.2703	83
4.2777	80
4.2851	68
4.2925	77
4.2999	77
4.3073	76
4.3147	92
4.3221	85
4.3295	86
4.3369	66
4.3443	82
4.3517	76
4.3591	83
4.3665	79
4.3739	69
4.3813	63
4.3887	65
4.3961	86
4.4035	63
4.4109	68
4.4183	62
4.4256	80
4.4330	77
4.4404	82
4.4478	70
4.4552	71
4.4626	81
4.4700	67
4.4774	77
4.4848	63
4.4922	67
4.4996	72
4.5070	78
4.5144	61
4.5218	68
4.5292	76
4.5366	66
4.5440	74
4.5514	85
4.5588	71
4.5662	88
4.5736	69
4.5809	69
4.5883	54
4.5957	72
4.6031	62
4.6105	85
4.6179	58
4.6253	76
4.6327	71
4.6401	68
4.6475	66
4.6549	64
4.6623	67
4.6697	75
4.6771	73
4.6845	63
4.6919	63
4.6993	59
4.7067	70
4.7141	62
4.7215	68
4.7289	78
4.7362	71
4.7436	66
4.7510	70
4.7584	74
4.7658	64
4.7732	58
4.7806	56
4.7880	68
4.7954	63
4.8028	59
4.8102	63
4.8176	62
4.8250	57
4.8324	56
4.8398	60
4.8472	64
4.8546	57
4.8620	58
4.8694	65
4.8768	84
4.8842	59
4.8915	66
4.8989	60
4.9063	55
4.9137	65
4.9211	71
4.9285	77
4.9359	66
4.9433	69
4.9507	67
4.9581	78
4.9655	66
4.9729	75
4.9803	68
4.9877	79
4.9951	67
5.0025	59
5.0099	63
5.0173	76
5.0247	69
5.0321	61
5.0395	64
5.0468	70
5.0542	56
5.0616	68
5.0690	69
5.0764	64
5.0838	86
5.0912	65
5.0986	66
5.1060	60
5.1134	72
5.1208	67
5.1282	55
5.1356	71
5.1430	71
5.1504	66
5.1578	53
5.1652	58
5.1726	64
5.1800	54
5.1874	55
5.1948	56
5.2021	72
5.2095	68
5.2169	56
5.2243	53
5.2317	68
5.2391	72
5.2465	54
5.2539	60
5.2613	57
5.2687	74
5.2761	62
5.2835	52
5.2909	64
5.2983	75
5.3057	78
5.3131	73
5.3205	62
5.3279	76
5.3353	65
5.3427	65
5.3501	63
5.3574	42
5.3648	75
5.3722	65
5.3796	65
5.3870	57
5.3944	73
5.4018	72
5.4092	57
5.4166	62
5.4240	61
5.4314	67
5.4388	65
5.4462	71
5.4536	59
5.4610	49
5.4684	83
5.4758	56
5.4832	51
5.4906	56
5.4980	70
5.5054	54
5.5127	53
5.5201	55
5.5275	63
5.5349	62
5.5423	56
5.5497	46
5.5571	73
5.5645	57
5.5719	53
5.5793	78
5.5867	50
5.5941	50
5.6015	58
5.6089	65
5.6163	54
5.6237	48
5.6311	58
5.6385	64
5.6459	55
5.6533	44
5.6607	65
5.6680	65
5.6754	54
5.6828	64
5.6902	53
5.6976	53
5.7050	59
5.7124	49
5.7198	60
5.7272	74
5.7346	59
5.7420	55
5.7494	74
5.7568	69
5.7642	57
5.7716	61
5.7790	60
5.7864	49
5.7938	50
5.8012	56
5.8086	65
5.8160	57
5.8233	71
5.8307	59
5.8381	75
5.8455	66
5.8529	55
5.8603	58
5.8677	62
5.8751	77
5.8825	58
5.8899	68
5.8973	54
5.9047	56
5.9121	51
5.9195	59
5.9269	56
5.9343	62
5.9417	65
5.9491	61
5.9565	49
5.9639	65
5.9713	63
5.9786	73
5.9860	57
5.9934	63
6.0008	49
6.0082	66
6.0156	66
6.0230	65
6.0304	67
6.0378	61
6.0452	70
6.0526	66
6.0600	55
6.0674	61
6.0748	59
6.0822	61
6.0896	58
6.0970	68
6.1044	45
6.1118	63
6.1192	75
6.1266	50
6.1340	65
6.1413	62
6.1487	76
6.1561	52
6.1635	60
6.1709	57
6.1783	61
6.1857	56
6.1931	53
6.2005	61
6.2079	57
6.2153	63
6.2227	60
6.2301	54
6.2375	66
6.2449	62
6.2523	59
6.2597	44
6.2671	58
6.2745	50
6.2819	57
6.2893	64
6.2966	58
6.3040	65
6.3114	61
6.3188	65
6.3262	60
6.3336	67
6.3410	60
6.3484	65
6.3558	71
6.3632	56
6.3706	44
6.3780	64
6.3854	52
6.3928	62
6.4002	63
6.4076	39
6.4150	82
6.4224	50
6.4298	70
6.4372	63
6.4446	48
6.4519	57
6.4593	52
6.4667	62
6.4741	57
6.4815	50
6.4889	54
6.4963	58
6.5037	64
6.5111	57
6.5185	65
6.5259	45
6.5333	64
6.5407	41
6.5481	53
6.5555	75
6.5629	64
6.5703	59
6.5777	58
6.5851	55
6.5925	68
6.5999	51
6.6072	56
6.6146	53
6.6220	47
6.6294	46
6.6368	52
6.6442	62
6.6516	64
6.6590	64
6.6664	53
6.6738	61
6.6812	62
6.6886	53
6.6960	66
6.7034	57
6.7108	57
6.7182	68
6.7256	58
6.7330	56
6.7404	57
6.7478	67
6.7552	64
6.7625	46
6.7699	75
6.7773	62
6.7847	52
6.7921	50
6.7995	63
6.8069	66
6.8143	56
6.8217	59
6.8291	60
6.8365	56
6.8439	57
6.8513	55
6.8587	52
6.8661	74
6.8735	68
6.8809	70
6.8883	60
6.8957	78
6.9031	63
6.9105	64
6.9178	64
6.9252	60
6.9326	60
6.9400	64
6.9474	70
6.9548	64
6.9622	61
6.9696	61
6.9770	80
6.9844	61
6.9918	53
6.9992	69
7.0066	60
7.0140	51
7.0214	70
7.0288	67
7.0362	62
7.0436	56
7.0510	65
7.0584	48
7.0658	52
7.0731	62
7.0805	73
7.0879	50
7.0953	56
7.1027	67
7.1101	71
7.1175	55
7.1249	58
7.1323	51
7.1397	54
7.1471	56
7.1545	56
7.1619	59
7.1693	56
7.1767	68
7.1841	73
7.1915	67
7.1989	48
7.2063	63
7.2137	75
7.2211	48
7.2284	61
7.2358	59
7.2432	64
7.2506	54
7.2580	60
7.2654	52
7.2728	43
7.2802	53
7.2876	57
7.2950	57
7.3024	55
7.3098	63
7.3172	72
7.3246	63
7.3320	79
7.3394	58
7.3468	57
7.3542	70
7.3616	62
7.3690	63
7.3764	38
7.3837	50
7.3911	64
7.3985	69
7.4059	54
7.4133	61
7.4207	59
7.4281	73
7.4355	64
7.4429	55
7.4503	50
7.4577	60
7.4651	44
7.4725	59
7.4799	52
7.4873	61
7.4947	62
7.5021	53
7.5095	50
7.5169	66
7.5243	68
7.5317	65
7.5390	51
7.5464	57
7.5538	59
7.5612	70
7.5686	67
7.5760	58
7.5834	66
7.5908	59
7.5982	69
7.6056	63
7.6130	67
7.6204	70
7.6278	67
7.6352	66
7.6426	82
7.6500	59
7.6574	70
7.6648	56
7.6722	69
7.6796	74
7.6870	104
7.6944	108
7.7017	79
7.7091	89
7.7165	72
7.7239	82
7.7313	87
7.7387	64
7.7461	67
7.7535	65
7.7609	64
7.7683	62
7.7757	61
7.7831	68
7.7905	77
7.7979	60
7.8053	58
7.8127	76
7.8201	78
7.8275	60
7.8349	69
7.8423	70
7.8497	78
7.8570	68
7.8644	67
7.8718	57
7.8792	71
7.8866	69
7.8940	70
7.9014	78
7.9088	83
7.9162	81
7.9236	63
7.9310	70
7.9384	70
7.9458	68
7.9532	93
7.9606	82
7.9680	72
7.9754	91
7.9828	79
7.9902	67
7.9976	71
8.0050	69
8.0123	69
8.0197	69
8.0271	81
8.0345	56
8.0419	78
8.0493	75
8.0567	68
8.0641	80
8.0715	91
8.0789	78
8.0863	77
8.0937	95
8.1011	77
8.1085	91
8.1159	87
8.1233	98
8.1307	108
8.1381	79
8.1455	104
8.1529	95
8.1603	104
8.1676	118
8.1750	104
8.1824	121
8.1898	127
8.1972	139
8.2046	131
8.2120	171
8.2194	176
8.2268	185
8.2342	203
8.2416	198
8.2490	231
8.2564	217
8.2638	203
8.2712	232
8.2786	259
8.2860	212
8.2934	287
8.3008	299
8.3082	335
8.3156	351
8.3229	348
8.3303	380
8.3377	413
8.3451	428
8.3525	468
8.3599	497
8.3673	565
8.3747	608
8.3821	638
8.3895	731
8.3969	846
8.4043	926
8.4117	1012
8.4191	1181
8.4265	1422
8.4339	1559
8.4413	1781
8.4487	2163
8.4561	2567
8.4635	3285
8.4709	4135
8.4782	5532
8.4856	7242
8.4930	9341
8.5004	11719
8.5078	13431
8.5152	14330
8.5226	13986
8.5300	12599
8.5374	10950
8.5448	8685
8.5522	6971
8.5596	5236
8.5670	3973
8.5744	2987
8.5818	2482
8.5892	1967
8.5966	1741
8.6040	1481
8.6114	1194
8.6188	1009
8.6262	822
8.6335	565
8.6409	494
8.6483	434
8.6557	375
8.6631	317
8.6705	307
8.6779	291
8.6853	284
8.6927	278
8.7001	259
8.7075	228
8.7149	274
8.7223	244
8.7297	217
8.7371	249
8.7445	213
8.7519	187
8.7593	189
8.7667	216
8.7741	171
8.7815	175
8.7888	186
8.7962	193
8.8036	175
8.8110	178
8.8184	173
8.8258	167
8.8332	172
8.8406	156
8.8480	175
8.8554	157
8.8628	152
8.8702	170
8.8776	141
8.8850	181
8.8924	142
8.8998	175
8.9072	147
8.9146	130
8.9220	142
8.9294	148
8.9368	150
8.9441	143
8.9515	153
8.9589	128
8.9663	143
8.9737	129
8.9811	151
8.9885	129
8.9959	122
9.0033	150
9.0107	135
9.0181	128
9.0255	120
9.0329	125
9.0403	155
9.0477	136
9.0551	123
9.0625	125
9.0699	127
9.0773	133
9.0847	144
9.0921	123
9.0994	121
9.1068	131
9.1142	117
9.1216	123
9.1290	120
9.1364	118
9.1438	115
9.1512	153
9.1586	120
9.1660	117
9.1734	119
9.1808	138
9.1882	109
9.1956	105
9.2030	141
9.2104	127
9.2178	128
9.2252	111
9.2326	131
9.2400	117
9.2474	135
9.2548	103
9.2621	132
9.2695	113
9.2769	128
9.2843	119
9.2917	115
9.2991	98
9.3065	126
9.3139	104
9.3213	89
9.3287	123
9.3361	112
9.3435	106
9.3509	118
9.3583	104
9.3657	124
9.3731	125
9.3805	95
9.3879	108
9.3953	113
9.4027	108
9.4101	108
9.4174	109
9.4248	107
9.4322	100
9.4396	88
9.4470	98
9.4544	87
9.4618	107
9.4692	94
9.4766	93
9.4840	75
9.4914	102
9.4988	90
9.5062	115
9.5136	89
9.5210	86
9.5284	97
9.5358	82
9.5432	111
9.5506	109
9.5580	90
9.5654	88
9.5727	98
9.5801	98
9.5875	107
9.5949	81
9.6023	95
9.6097	100
9.6171	98
9.6245	92
9.6319	111
9.6393	108
9.6467	91
9.6541	97
9.6615	96
9.6689	98
9.6763	90
9.6837	98
9.6911	70
9.6985	90
9.7059	104
9.7133	84
9.7207	84
9.7280	100
9.7354	118
9.7428	107
9.7502	82
9.7576	109
9.7650	88
9.7724	89
9.7798	96
9.7872	89
9.7946	87
9.8020	74
9.8094	101
9.8168	86
9.8242	109
9.8316	86
9.8390	72
9.8464	93
9.8538	74
9.8612	66
9.8686	94
9.8760	91
9.8833	106
9.8907	94
9.8981	70
9.9055	85
9.9129	95
9.9203	74
9.9277	83
9.9351	107
9.9425	81
9.9499	91
9.9573	76
9.9647	87
9.9721	76
9.9795	98
9.9869	84
9.9943	76
10.0017	86
10.0091	92
10.0165	87
10.0239	101
10.0313	82
10.0386	80
10.0460	61
10.0534	78
10.0608	66
10.0682	72
10.0756	79
10.0830	88
10.0904	77
10.0978	73
10.1052	82
10.1126	68
10.1200	81
10.1274	62
10.1348	87
10.1422	80
10.1496	81
10.1570	81
10.1644	85
10.1718	81
10.1792	84
10.1866	77
10.1939	85
10.2013	92
10.2087	86
10.2161	88
10.2235	83
10.2309	78
10.2383	83
10.2457	80
10.2531	89
10.2605	86
10.2679	92
10.2753	84
10.2827	73
10.2901	80
10.2975	85
10.3049	96
10.3123	67
10.3197	89
10.3271	91
10.3345	83
10.3419	73
10.3492	70
10.3566	78
10.3640	74
10.3714	73
10.3788	89
10.3862	84
10.3936	68
10.4010	71
10.4084	87
10.4158	61
10.4232	79
10.4306	88
10.4380	69
10.4454	75
10.4528	77
10.4602	70
10.4676	64
10.4750	73
10.4824	61
10.4898	72
10.4972	67
10.5045	67
10.5119	63
10.5193	70
10.5267	84
10.5341	69
10.5415	63
10.5489	71
10.5563	65
10.5637	77
10.5711	78
10.5785	59
10.5859	93
10.5933	68
10.6007	71
10.6081	76
10.6155	72
10.6229	77
10.6303	70
10.6377	75
10.6451	68
10.6525	83
10.6598	62
10.6672	62
10.6746	81
10.6820	71
10.6894	82
10.6968	87
10.7042	75
10.7116	82
10.7190	60
10.7264	69
10.7338	65
10.7412	62
10.7486	69
10.7560	66
10.7634	61
10.7708	68
10.7782	68
10.7856	63
10.7930	53
10.8004	64
10.8078	77
10.8151	69
10.8225	71
10.8299	79
10.8373	59
10.8447	76
10.8521	64
10.8595	69
10.8669	78
10.8743	66
10.8817	82
10.8891	74
10.8965	72
10.9039	53
10.9113	56
10.9187	55
10.9261	59
10.9335	79
10.9409	69
10.9483	56
10.9557	54
10.9631	57
10.9705	63
10.9778	83
10.9852	59
10.9926	64
11.0000	66
11.0074	66
11.0148	63
11.0222	69
11.0296	84
11.0370	53
11.0444	61
11.0518	59
11.0592	74
11.0666	70
11.0740	61
11.0814	66
11.0888	59
11.0962	68
11.1036	69
11.1110	70
11.1184	78
11.1258	76
11.1331	66
11.1405	69
11.1479	57
11.1553	76
11.1627	74
11.1701	81
11.1775	87
11.1849	74
11.1923	66
11.1997	73
11.2071	70
11.2145	65
11.2219	71
11.2293	70
11.2367	79
11.2441	60
11.2515	85
11.2589	53
11.2663	82
11.2737	68
11.2811	73
11.2884	78
11.2958	61
11.3032	91
11.3106	79
11.3180	87
11.3254	92
11.3328	77
11.3402	84
11.3476	85
11.3550	96
11.3624	95
11.3698	83
11.3772	110
11.3846	108
11.3920	73
11.3994	80
11.4068	92
11.4142	92
11.4216	71
11.4290	103
11.4364	111
11.4437	68
11.4511	90
11.4585	90
11.4659	105
11.4733	95
11.4807	98
11.4881	96
11.4955	103
11.5029	108
11.5103	111
11.5177	123
11.5251	103
11.5325	106
11.5399	124
11.5473	128
11.5547	145
11.5621	153
11.5695	184
11.5769	196
11.5843	198
11.5917	214
11.5990	250
11.6064	275
11.6138	335
11.6212	395
11.6286	480
11.6360	561
11.6434	706
11.6508	882
11.6582	1121
11.6656	1403
11.6730	1674
11.6804	2079
11.6878	2380
11.6952	2639
11.7026	2774
11.7100	2762
11.7174	2697
11.7248	2519
11.7322	2300
11.7396	2123
11.7470	1979
11.7543	1717
11.7617	1453
11.7691	1241
11.7765	1010
11.7839	836
11.7913	720
11.7987	540
11.8061	399
11.8135	332
11.8209	262
11.8283	213
11.8357	194
11.8431	183
11.8505	147
11.8579	124
11.8653	132
11.8727	133
11.8801	119
11.8875	131
11.8949	115
11.9023	120
11.9096	113
11.9170	102
11.9244	107
11.9318	122
11.9392	127
11.9466	98
11.9540	140
11.9614	108
11.9688	121
11.9762	119
11.9836	124
11.9910	121
11.9984	148
12.0058	129
12.0132	133
12.0206	106
12.0280	118
12.0354	95
12.0428	119
12.0502	106
12.0576	107
12.0649	120
12.0723	108
12.0797	120
12.0871	129
12.0945	116
12.1019	125
12.1093	126
12.1167	117
12.1241	112
12.1315	123
12.1389	128
12.1463	109
12.1537	119
12.1611	143
12.1685	153
12.1759	134
12.1833	174
12.1907	163
12.1981	184
12.2055	194
12.2129	230
12.2202	223
12.2276	276
12.2350	247
12.2424	266
12.2498	366
12.2572	383
12.2646	447
12.2720	493
12.2794	564
12.2868	663
12.2942	812
12.3016	992
12.3090	1292
12.3164	1606
12.3238	1963
12.3312	2396
12.3386	2768
12.3460	3263
12.3534	3315
12.3608	3299
12.3682	3146
12.3755	3134
12.3829	2702
12.3903	2423
12.3977	2089
12.4051	1735
12.4125	1422
12.4199	1194
12.4273	989
12.4347	831
12.4421	649
12.4495	585
12.4569	472
12.4643	404
12.4717	316
12.4791	277
12.4865	250
12.4939	248
12.5013	194
12.5087	173
12.5161	151
12.5235	132
12.5309	143
12.5382	149
12.5456	128
12.5530	130
12.5604	119
12.5678	112
12.5752	113
12.5826	109
12.5900	119
12.5974	111
12.6048	114
12.6122	109
12.6196	125
12.6270	111
12.6344	112
12.6418	113
12.6492	118
12.6566	119
12.6640	98
12.6714	93
12.6788	97
12.6862	99
12.6935	104
12.7009	89
12.7083	103
12.7157	103
12.7231	81
12.7305	93
12.7379	117
12.7453	91
12.7527	91
12.7601	92
12.7675	94
12.7749	97
12.7823	100
12.7897	98
12.7971	102
12.8045	92
12.8119	119
12.8193	124
12.8267	97
12.8341	114
12.8415	103
12.8488	104
12.8562	88
12.8636	118
12.8710	100
12.8784	112
12.8858	103
12.8932	105
12.9006	117
12.9080	114
12.9154	117
12.9228	109
12.9302	123
12.9376	88
12.9450	99
12.9524	92
12.9598	110
12.9672	109
12.9746	104
12.9820	94
12.9894	115
12.9968	106
13.0041	112
13.0115	103
13.0189	109
13.0263	113
13.0337	124
13.0411	109
13.0485	127
13.0559	135
13.0633	120
13.0707	116
13.0781	163
13.0855	163
13.0929	169
13.1003	177
13.1077	182
13.1151	183
13.1225	250
13.1299	273
13.1373	273
13.1447	336
13.1521	413
13.1594	464
13.1668	524
13.1742	644
13.1816	791
13.1890	1025
13.1964	1263
13.2038	1683
13.2112	1914
13.2186	2291
13.2260	2584
13.2334	2667
13.2408	2701
13.2482	2677
13.2556	2565
13.2630	2456
13.2704	2169
13.2778	1896
13.2852	1679
13.2926	1384
13.3000	1229
13.3074	956
13.3147	872
13.3221	698
13.3295	524
13.3369	449
13.3443	392
13.3517	324
13.3591	283
13.3665	243
13.3739	226
13.3813	231
13.3887	236
13.3961	203
13.4035	198
13.4109	196
13.4183	178
13.4257	194
13.4331	183
13.4405	182
13.4479	166
13.4553	193
13.4627	187
13.4700	146
13.4774	187
13.4848	197
13.4922	216
13.4996	181
13.5070	189
13.5144	234
13.5218	250
13.5292	241
13.5366	261
13.5440	300
13.5514	296
13.5588	377
13.5662	447
13.5736	479
13.5810	578
13.5884	695
13.5958	842
13.6032	1012
13.6106	1273
13.6180	1609
13.6253	2023
13.6327	2499
13.6401	3264
13.6475	3673
13.6549	4089
13.6623	4460
13.6697	4428
13.6771	4417
13.6845	4298
13.6919	4040
13.6993	3709
13.7067	3366
13.7141	3062
13.7215	2591
13.7289	2192
13.7363	1848
13.7437	1523
13.7511	1261
13.7585	1021
13.7659	913
13.7733	786
13.7806	665
13.7880	608
13.7954	541
13.8028	415
13.8102	373
13.8176	356
13.8250	259
13.8324	256
13.8398	233
13.8472	229
13.8546	205
13.8620	163
13.8694	153
13.8768	165
13.8842	145
13.8916	159
13.8990	160
13.9064	191
13.9138	125
13.9212	139
13.9286	143
13.9359	134
13.9433	134
13.9507	132
13.9581	146
13.9655	102
13.9729	126
13.9803	139
13.9877	99
13.9951	138
14.0025	125
14.0099	108
14.0173	118
14.0247	115
14.0321	103
14.0395	114
14.0469	99
14.0543	121
14.0617	125
14.0691	115
14.0765	121
14.0839	103
14.0913	111
14.0986	122
14.1060	108
14.1134	104
14.1208	110
14.1282	106
14.1356	112
14.1430	104
14.1504	108
14.1578	100
14.1652	113
14.1726	106
14.1800	96
14.1874	97
14.1948	95
14.2022	106
14.2096	98
14.2170	104
14.2244	114
14.2318	112
14.2392	101
14.2466	111
14.2539	109
14.2613	87
14.2687	93
14.2761	95
14.2835	100
14.2909	96
14.2983	103
14.3057	106
14.3131	118
14.3205	120
14.3279	108
14.3353	111
14.3427	105
14.3501	120
14.3575	130
14.3649	123
14.3723	157
14.3797	158
14.3871	173
14.3945	187
14.4019	212
14.4092	188
14.4166	210
14.4240	206
14.4314	179
14.4388	195
14.4462	225
14.4536	179
14.4610	178
14.4684	196
14.4758	198
14.4832	176
14.4906	140
14.4980	163
14.5054	151
14.5128	129
14.5202	124
14.5276	130
14.5350	106
14.5424	105
14.5498	115
14.5572	113
14.5645	111
14.5719	94
14.5793	88
14.5867	96
14.5941	104
14.6015	81
14.6089	84
14.6163	84
14.6237	118
14.6311	70
14.6385	89
14.6459	90
14.6533	82
14.6607	95
14.6681	76
14.6755	77
14.6829	79
14.6903	84
14.6977	82
14.7051	97
14.7125	78
14.7198	99
14.7272	91
14.7346	79
14.7420	89
14.7494	85
14.7568	88
14.7642	82
14.7716	85
14.7790	84
14.7864	74
14.7938	100
14.8012	79
14.8086	79
14.8160	80
14.8234	91
14.8308	83
14.8382	71
14.8456	77
14.8530	83
14.8604	87
14.8678	77
14.8751	65
14.8825	83
14.8899	87
14.8973	78
14.9047	102
14.9121	83
14.9195	86
14.9269	78
14.9343	96
14.9417	94
14.9491	90
14.9565	96
14.9639	73
14.9713	84
14.9787	89
14.9861	73
14.9935	81
15.0009	76
15.0083	86
15.0157	82
15.0231	80
15.0304	97
15.0378	69
15.0452	83
15.0526	72
15.0600	74
15.0674	93
15.0748	73
15.0822	79
15.0896	79
15.0970	66
15.1044	78
15.1118	93
15.1192	80
15.1266	81
15.1340	75
15.1414	93
15.1488	81
15.1562	89
15.1636	94
15.1710	71
15.1784	71
15.1857	85
15.1931	72
15.2005	79
15.2079	91
15.2153	58
15.2227	65
15.2301	74
15.2375	82
15.2449	77
15.2523	75
15.2597	86
15.2671	75
15.2745	84
15.2819	83
15.2893	83
15.2967	82
15.3041	70
15.3115	72
15.3189	71
15.3263	70
15.3337	81
15.3410	83
15.3484	81
15.3558	80
15.3632	82
15.3706	89
15.3780	87
15.3854	72
15.3928	84
15.4002	85
15.4076	71
15.4150	78
15.4224	72
15.4298	71
15.4372	80
15.4446	83
15.4520	72
15.4594	78
15.4668	69
15.4742	80
15.4816	73
15.4890	79
15.4963	74
15.5037	89
15.5111	97
15.5185	88
15.5259	80
15.5333	95
15.5407	87
15.5481	91
15.5555	92
15.5629	105
15.5703	108
15.5777	74
15.5851	88
15.5925	89
15.5999	77
15.6073	89
15.6147	87
15.6221	92
15.6295	91
15.6369	75
15.6443	93
15.6516	89
15.6590	87
15.6664	92
15.6738	82
15.6812	80
15.6886	92
15.6960	91
15.7034	86
15.7108	77
15.7182	65
15.7256	89
15.7330	80
15.7404	65
15.7478	77
15.7552	79
15.7626	86
15.7700	70
15.7774	71
15.7848	70
15.7922	77
15.7996	50
15.8070	81
15.8143	64
15.8217	78
15.8291	84
15.8365	75
15.8439	73
15.8513	76
15.8587	70
15.8661	66
15.8735	81
15.8809	66
15.8883	68
15.8957	61
15.9031	76
15.9105	91
15.9179	96
15.9253	76
15.9327	89
15.9401	70
15.9475	82
15.9549	76
15.9623	77
15.9696	59
15.9770	60
15.9844	60
15.9918	76
15.9992	67
16.0066	86
16.0140	72
16.0214	68
16.0288	75
16.0362	74
16.0436	75
16.0510	81
16.0584	70
16.0658	80
16.0732	66
16.0806	68
16.0880	77
16.0954	74
16.1028	74
16.1102	59
16.1176	65
16.1249	89
16.1323	84
16.1397	92
16.1471	76
16.1545	53
16.1619	72
16.1693	74
16.1767	91
16.1841	72
16.1915	68
16.1989	69
16.2063	69
16.2137	88
16.2211	71
16.2285	80
16.2359	86
16.2433	79
16.2507	84
16.2581	54
16.2655	76
16.2729	59
16.2802	84
16.2876	87
16.2950	91
16.3024	63
16.3098	72
16.3172	61
16.3246	78
16.3320	79
16.3394	86
16.3468	75
16.3542	74
16.3616	63
16.3690	69
16.3764	75
16.3838	79
16.3912	68
16.3986	81
16.4060	90
16.4134	83
16.4208	99
16.4282	97
16.4355	88
16.4429	113
16.4503	88
16.4577	79
16.4651	96
16.4725	92
16.4799	87
16.4873	115
16.4947	103
16.5021	79
16.5095	104
16.5169	101
16.5243	81
16.5317	87
16.5391	90
16.5465	109
16.5539	106
16.5613	106
16.5687	112
16.5761	94
16.5835	126
16.5908	107
16.5982	99
16.6056	114
16.6130	97
16.6204	103
16.6278	100
16.6352	101
16.6426	93
16.6500	92
16.6574	89
16.6648	117
16.6722	108
16.6796	109
16.6870	103
16.6944	133
16.7018	121
16.7092	118
16.7166	130
16.7240	117
16.7314	136
16.7388	141
16.7461	148
16.7535	141
16.7609	173
16.7683	195
16.7757	228
16.7831	219
16.7905	284
16.7979	244
16.8053	295
16.8127	344
16.8201	344
16.8275	414
16.8349	431
16.8423	427
16.8497	488
16.8571	521
16.8645	542
16.8719	524
16.8793	476
16.8867	507
16.8941	527
16.9014	579
16.9088	521
16.9162	513
16.9236	565
16.9310	573
16.9384	652
16.9458	714
16.9532	889
16.9606	1057
16.9680	1378
16.9754	1942
16.9828	2427
16.9902	3219
16.9976	3915
17.0050	4469
17.0124	4520
17.0198	4328
17.0272	4059
17.0346	3911
17.0420	3551
17.0494	3290
17.0567	3029
17.0641	2512
17.0715	2150
17.0789	1794
17.0863	1535
17.0937	1282
17.1011	1066
17.1085	927
17.1159	763
17.1233	738
17.1307	616
17.1381	529
17.1455	445
17.1529	404
17.1603	349
17.1677	295
17.1751	234
17.1825	227
17.1899	218
17.1973	202
17.2047	155
17.2120	175
17.2194	148
17.2268	163
17.2342	151
17.2416	126
17.2490	131
17.2564	124
17.2638	155
17.2712	131
17.2786	125
17.2860	140
17.2934	115
17.3008	129
17.3082	110
17.3156	112
17.3230	112
17.3304	119
17.3378	127
17.3452	134
17.3526	119
17.3600	115
17.3674	128
17.3747	129
17.3821	106
17.3895	103
17.3969	118
17.4043	122
17.4117	99
17.4191	111
17.4265	105
17.4339	110
17.4413	119
17.4487	112
17.4561	97
17.4635	96
17.4709	132
17.4783	108
17.4857	113
17.4931	127
17.5005	101
17.5079	93
17.5153	104
17.5227	115
17.5300	90
17.5374	121
17.5448	115
17.5522	111
17.5596	103
17.5670	100
17.5744	99
17.5818	98
17.5892	103
17.5966	101
17.6040	83
17.6114	83
17.6188	112
17.6262	95
17.6336	99
17.6410	128
17.6484	89
17.6558	88
17.6632	109
17.6706	109
17.6780	119
17.6853	109
17.6927	108
17.7001	96
17.7075	110
17.7149	121
17.7223	127
17.7297	115
17.7371	114
17.7445	139
17.7519	149
17.7593	179
17.7667	179
17.7741	218
17.7815	231
17.7889	250
17.7963	264
17.8037	293
17.8111	301
17.8185	313
17.8259	368
17.8333	336
17.8406	391
17.8480	378
17.8554	409
17.8628	450
17.8702	452
17.8776	455
17.8850	488
17.8924	468
17.8998	455
17.9072	504
17.9146	507
17.9220	467
17.9294	399
17.9368	387
17.9442	422
17.9516	353
17.9590	313
17.9664	296
17.9738	271
17.9812	256
17.9886	222
17.9959	213
18.0033	191
18.0107	175
18.0181	141
18.0255	138
18.0329	117
18.0403	108
18.0477	124
18.0551	129
18.0625	110
18.0699	98
18.0773	115
18.0847	104
18.0921	97
18.0995	131
18.1069	108
18.1143	98
18.1217	110
18.1291	134
18.1365	94
18.1439	98
18.1512	107
18.1586	82
18.1660	105
18.1734	100
18.1808	103
18.1882	109
18.1956	103
18.2030	109
18.2104	93
18.2178	98
18.2252	114
18.2326	126
18.2400	109
18.2474	108
18.2548	108
18.2622	104
18.2696	115
18.2770	94
18.2844	99
18.2918	132
18.2992	88
18.3065	100
18.3139	109
18.3213	96
18.3287	100
18.3361	118
18.3435	119
18.3509	123
18.3583	92
18.3657	113
18.3731	96
18.3805	112
18.3879	123
18.3953	110
18.4027	107
18.4101	96
18.4175	115
18.4249	125
18.4323	128
18.4397	116
18.4471	112
18.4545	124
18.4618	146
18.4692	141
18.4766	162
18.4840	186
18.4914	184
18.4988	220
18.5062	278
18.5136	312
18.5210	372
18.5284	426
18.5358	527
18.5432	546
18.5506	613
18.5580	678
18.5654	731
18.5728	832
18.5802	979
18.5876	1079
18.5950	1211
18.6024	1404
18.6098	1432
18.6171	1437
18.6245	1471
18.6319	1378
18.6393	1351
18.6467	1268
18.6541	1237
18.6615	1074
18.6689	1034
18.6763	896
18.6837	782
18.6911	632
18.6985	587
18.7059	529
18.7133	479
18.7207	461
18.7281	368
18.7355	319
18.7429	334
18.7503	250
18.7577	255
18.7651	205
18.7724	182
18.7798	173
18.7872	179
18.7946	134
18.8020	161
18.8094	124
18.8168	124
18.8242	130
18.8316	113
18.8390	122
18.8464	104
18.8538	115
18.8612	108
18.8686	111
18.8760	127
18.8834	116
18.8908	135
18.8982	111
18.9056	101
18.9130	109
18.9204	112
18.9278	101
18.9351	110
18.9425	97
18.9499	105
18.9573	81
18.9647	126
18.9721	119
18.9795	108
18.9869	118
18.9943	91
19.0017	108
19.0091	97
19.0165	108
19.0239	108
19.0313	103
19.0387	106
19.0461	118
19.0535	82
19.0609	94
19.0683	99
19.0757	88
19.0831	100
19.0904	112
19.0978	105
19.1052	94
19.1126	112
19.1200	94
19.1274	107
19.1348	109
19.1422	109
19.1496	115
19.1570	104
19.1644	109
19.1718	87
19.1792	87
19.1866	109
19.1940	99
19.2014	99
19.2088	101
19.2162	94
19.2236	124
19.2310	87
19.2384	108
19.2457	100
19.2531	98
19.2605	99
19.2679	97
19.2753	120
19.2827	107
19.2901	88
19.2975	98
19.3049	117
19.3123	103
19.3197	103
19.3271	117
19.3345	119
19.3419	126
19.3493	138
19.3567	139
19.3641	137
19.3715	163
19.3789	176
19.3863	210
19.3937	264
19.4010	311
19.4084	342
19.4158	385
19.4232	483
19.4306	485
19.4380	559
19.4454	549
19.4528	585
19.4602	590
19.4676	631
19.4750	570
19.4824	624
19.4898	622
19.4972	565
19.5046	528
19.5120	516
19.5194	428
19.5268	362
19.5342	367
19.5416	284
19.5490	305
19.5563	278
19.5637	233
19.5711	191
19.5785	181
19.5859	188
19.5933	158
19.6007	139
19.6081	137
19.6155	136
19.6229	104
19.6303	110
19.6377	122
19.6451	103
19.6525	115
19.6599	131
19.6673	103
19.6747	102
19.6821	128
19.6895	107
19.6969	97
19.7043	124
19.7116	102
19.7190	99
19.7264	117
19.7338	121
19.7412	118
19.7486	99
19.7560	105
19.7634	130
19.7708	110
19.7782	120
19.7856	130
19.7930	129
19.8004	138
19.8078	141
19.8152	134
19.8226	140
19.8300	140
19.8374	138
19.8448	121
19.8522	113
19.8596	117
19.8669	124
19.8743	115
19.8817	106
19.8891	117
19.8965	103
19.9039	114
19.9113	117
19.9187	115
19.9261	91
19.9335	111
19.9409	106
19.9483	101
19.9557	117
19.9631	130
19.9705	96
19.9779	116
19.9853	111
19.9927	104
20.0001	96
20.0075	104
20.0149	94
20.0222	86
20.0296	121
20.0370	108
20.0444	109
20.0518	96
20.0592	115
20.0666	116
20.0740	109
20.0814	107
20.0888	94
20.0962	101
20.1036	119
20.1110	109
20.1184	126
20.1258	113
20.1332	105
20.1406	131
20.1480	96
20.1554	113
20.1628	89
20.1702	125
20.1775	116
20.1849	100
20.1923	106
20.1997	99
20.2071	111
20.2145	111
20.2219	127
20.2293	125
20.2367	126
20.2441	108
20.2515	82
20.2589	107
20.2663	108
20.2737	97
20.2811	112
20.2885	98
20.2959	119
20.3033	110
20.3107	116
20.3181	118
20.3255	90
20.3328	92
20.3402	105
20.3476	116
20.3550	123
20.3624	125
20.3698	123
20.3772	124
20.3846	112
20.3920	134
20.3994	128
20.4068	133
20.4142	102
20.4216	138
20.4290	137
20.4364	164
20.4438	187
20.4512	205
20.4586	194
20.4660	240
20.4734	240
20.4808	320
20.4882	373
20.4955	397
20.5029	432
20.5103	514
20.5177	557
20.5251	574
20.5325	572
20.5399	629
20.5473	592
20.5547	637
20.5621	656
20.5695	617
20.5769	564
20.5843	533
20.5917	534
20.5991	521
20.6065	431
20.6139	447
20.6213	424
20.6287	399
20.6361	353
20.6435	329
20.6508	285
20.6582	310
20.6656	283
20.6730	246
20.6804	224
20.6878	222
20.6952	190
20.7026	180
20.7100	162
20.7174	163
20.7248	150
20.7322	164
20.7396	157
20.7470	162
20.7544	142
20.7618	136
20.7692	146
20.7766	131
20.7840	151
20.7914	145
20.7988	160
20.8061	146
20.8135	162
20.8209	144
20.8283	151
20.8357	137
20.8431	149
20.8505	159
20.8579	151
20.8653	137
20.8727	174
20.8801	172
20.8875	170
20.8949	170
20.9023	192
20.9097	201
20.9171	232
20.9245	223
20.9319	238
20.9393	274
20.9467	312
20.9541	335
20.9614	329
20.9688	324
20.9762	337
20.9836	335
20.9910	322
20.9984	323
21.0058	359
21.0132	345
21.0206	295
21.0280	293
21.0354	267
21.0428	270
21.0502	251
21.0576	229
21.0650	228
21.0724	213
21.0798	206
21.0872	164
21.0946	196
21.1020	179
21.1094	190
21.1167	155
21.1241	170
21.1315	178
21.1389	163
21.1463	169
21.1537	190
21.1611	193
21.1685	185
21.1759	200
21.1833	209
21.1907	219
21.1981	198
21.2055	233
21.2129	221
21.2203	210
21.2277	235
21.2351	205
21.2425	242
21.2499	279
21.2573	256
21.2647	248
21.2720	259
21.2794	253
21.2868	239
21.2942	232
21.3016	254
21.3090	253
21.3164	235
21.3238	259
21.3312	291
21.3386	273
21.3460	300
21.3534	268
21.3608	332
21.3682	323
21.3756	316
21.3830	318
21.3904	335
21.3978	385
21.4052	437
21.4126	453
21.4200	495
21.4273	603
21.4347	650
21.4421	850
21.4495	1048
21.4569	1306
21.4643	1563
21.4717	1952
21.4791	2345
21.4865	2549
21.4939	2725
21.5013	2708
21.5087	2671
21.5161	2700
21.5235	2579
21.5309	2510
21.5383	2420
21.5457	2438
21.5531	2382
21.5605	2193
21.5679	1922
21.5753	1795
21.5826	1800
21.5900	1655
21.5974	1511
21.6048	1467
21.6122	1252
21.6196	1152
21.6270	1043
21.6344	961
21.6418	937
21.6492	888
21.6566	820
21.6640	831
21.6714	732
21.6788	715
21.6862	728
21.6936	618
21.7010	637
21.7084	615
21.7158	577
21.7232	590
21.7306	651
21.7379	623
21.7453	624
21.7527	663
21.7601	694
21.7675	704
21.7749	672
21.7823	664
21.7897	704
21.7971	720
21.8045	711
21.8119	804
21.8193	845
21.8267	820
21.8341	995
21.8415	1022
21.8489	1218
21.8563	1367
21.8637	1652
21.8711	1961
21.8785	2412
21.8859	3140
21.8932	4075
21.9006	5417
21.9080	6944
21.9154	8847
21.9228	11002
21.9302	13179
21.9376	15141
21.9450	16253
21.9524	16664
21.9598	16571
21.9672	16452
21.9746	16018
21.9820	15792
21.9894	15269
21.9968	14811
22.0042	13529
22.0116	12332
22.0190	10761
22.0264	9301
22.0338	7896
22.0412	6595
22.0485	5621
22.0559	4701
22.0633	3962
22.0707	3368
22.0781	2715
22.0855	2135
22.0929	1802
22.1003	1521
22.1077	1364
22.1151	1178
22.1225	1020
22.1299	896
22.1373	838
22.1447	728
22.1521	679
22.1595	599
22.1669	579
22.1743	553
22.1817	524
22.1891	499
22.1965	444
22.2039	410
22.2112	411
22.2186	398
22.2260	405
22.2334	381
22.2408	384
22.2482	366
22.2556	332
22.2630	381
22.2704	353
22.2778	310
22.2852	322
22.2926	330
22.3000	307
22.3074	328
22.3148	307
22.3222	288
22.3296	321
22.3370	292
22.3444	296
22.3518	277
22.3592	312
22.3665	274
22.3739	277
22.3813	255
22.3887	261
22.3961	280
22.4035	295
22.4109	251
22.4183	256
22.4257	280
22.4331	259
22.4405	240
22.4479	254
22.4553	271
22.4627	251
22.4701	251
22.4775	223
22.4849	213
22.4923	247
22.4997	246
22.5071	216
22.5145	229
22.5218	246
22.5292	232
22.5366	266
22.5440	208
22.5514	255
22.5588	233
22.5662	240
22.5736	233
22.5810	226
22.5884	230
22.5958	229
22.6032	214
22.6106	255
22.6180	212
22.6254	223
22.6328	208
22.6402	228
22.6476	215
22.6550	221
22.6624	241
22.6698	229
22.6771	262
22.6845	231
22.6919	258
22.6993	290
22.7067	281
22.7141	296
22.7215	345
22.7289	361
22.7363	380
22.7437	459
22.7511	507
22.7585	517
22.7659	607
22.7733	616
22.7807	721
22.7881	840
22.7955	832
22.8029	894
22.8103	850
22.8177	903
22.8251	840
22.8324	859
22.8398	837
22.8472	774
22.8546	761
22.8620	751
22.8694	738
22.8768	666
22.8842	619
22.8916	564
22.8990	549
22.9064	447
22.9138	463
22.9212	351
22.9286	351
22.9360	335
22.9434	303
22.9508	290
22.9582	250
22.9656	266
22.9730	268
22.9804	263
22.9877	208
22.9951	219
23.0025	204
23.0099	242
23.0173	226
23.0247	195
23.0321	229
23.0395	209
23.0469	190
23.0543	202
23.0617	197
23.0691	195
23.0765	206
23.0839	194
23.0913	207
23.0987	207
23.1061	213
23.1135	197
23.1209	206
23.1283	207
23.1357	189
23.1430	212
23.1504	196
23.1578	196
23.1652	195
23.1726	191
23.1800	194
23.1874	168
23.1948	211
23.2022	186
23.2096	207
23.2170	222
23.2244	185
23.2318	172
23.2392	194
23.2466	173
23.2540	184
23.2614	182
23.2688	196
23.2762	195
23.2836	213
23.2910	190
23.2983	178
23.3057	211
23.3131	174
23.3205	221
23.3279	195
23.3353	194
23.3427	205
23.3501	224
23.3575	216
23.3649	223
23.3723	223
23.3797	256
23.3871	254
23.3945	239
23.4019	320
23.4093	368
23.4167	387
23.4241	477
23.4315	542
23.4389	699
23.4463	785
23.4536	824
23.4610	858
23.4684	820
23.4758	855
23.4832	773
23.4906	848
23.4980	856
23.5054	890
23.5128	886
23.5202	756
23.5276	758
23.5350	684
23.5424	574
23.5498	589
23.5572	604
23.5646	527
23.5720	455
23.5794	440
23.5868	408
23.5942	346
23.6016	328
23.6089	276
23.6163	299
23.6237	269
23.6311	243
23.6385	255
23.6459	213
23.6533	207
23.6607	228
23.6681	184
23.6755	213
23.6829	201
23.6903	216
23.6977	213
23.7051	219
23.7125	199
23.7199	182
23.7273	200
23.7347	192
23.7421	182
23.7495	211
23.7569	205
23.7643	187
23.7716	182
23.7790	178
23.7864	188
23.7938	163
23.8012	186
23.8086	189
23.8160	187
23.8234	192
23.8308	199
23.8382	188
23.8456	221
23.8530	202
23.8604	183
23.8678	210
23.8752	184
23.8826	195
23.8900	217
23.8974	227
23.9048	244
23.9122	288
23.9196	346
23.9269	350
23.9343	331
23.9417	417
23.9491	475
23.9565	510
23.9639	536
23.9713	584
23.9787	655
23.9861	682
23.9935	678
24.0009	769
24.0083	824
24.0157	931
24.0231	901
24.0305	949
24.0379	978
24.0453	965
24.0527	990
24.0601	892
24.0675	879
24.0749	865
24.0822	779
24.0896	699
24.0970	633
24.1044	640
24.1118	604
24.1192	536
24.1266	520
24.1340	388
24.1414	382
24.1488	327
24.1562	337
24.1636	288
24.1710	285
24.1784	241
24.1858	234
24.1932	248
24.2006	265
24.2080	268
24.2154	270
24.2228	289
24.2302	270
24.2375	312
24.2449	294
24.2523	371
24.2597	400
24.2671	439
24.2745	412
24.2819	400
24.2893	407
24.2967	421
24.3041	416
24.3115	397
24.3189	464
24.3263	468
24.3337	488
24.3411	529
24.3485	545
24.3559	608
24.3633	661
24.3707	640
24.3781	755
24.3855	696
24.3928	712
24.4002	749
24.4076	714
24.4150	751
24.4224	732
24.4298	731
24.4372	694
24.4446	729
24.4520	740
24.4594	711
24.4668	631
24.4742	601
24.4816	530
24.4890	495
24.4964	460
24.5038	451
24.5112	471
24.5186	368
24.5260	375
24.5334	371
24.5408	297
24.5481	277
24.5555	217
24.5629	213
24.5703	207
24.5777	235
24.5851	235
24.5925	227
24.5999	215
24.6073	191
24.6147	206
24.6221	177
24.6295	220
24.6369	200
24.6443	190
24.6517	165
24.6591	192
24.6665	212
24.6739	197
24.6813	221
24.6887	189
24.6961	215
24.7034	211
24.7108	241
24.7182	229
24.7256	256
24.7330	294
24.7404	325
24.7478	356
24.7552	388
24.7626	424
24.7700	378
24.7774	428
24.7848	398
24.7922	396
24.7996	425
24.8070	400
24.8144	377
24.8218	367
24.8292	387
24.8366	377
24.8440	330
24.8514	360
24.8587	329
24.8661	361
24.8735	329
24.8809	278
24.8883	271
24.8957	268
24.9031	242
24.9105	242
24.9179	232
24.9253	230
24.9327	213
24.9401	217
24.9475	218
24.9549	186
24.9623	183
24.9697	213
24.9771	200
24.9845	179
24.9919	217
24.9993	202
25.0067	202
25.0140	188
25.0214	196
25.0288	176
25.0362	205
25.0436	214
25.0510	221
25.0584	189
25.0658	219
25.0732	182
25.0806	215
25.0880	206
25.0954	209
25.1028	193
25.1102	201
25.1176	219
25.1250	187
25.1324	195
25.1398	199
25.1472	185
25.1546	183
25.1620	189
25.1693	211
25.1767	197
25.1841	203
25.1915	205
25.1989	198
25.2063	188
25.2137	183
25.2211	212
25.2285	190
25.2359	202
25.2433	226
25.2507	195
25.2581	225
25.2655	202
25.2729	222
25.2803	240
25.2877	235
25.2951	237
25.3025	231
25.3099	221
25.3173	248
25.3247	242
25.3320	248
25.3394	256
25.3468	300
25.3542	296
25.3616	308
25.3690	328
25.3764	365
25.3838	405
25.3912	462
25.3986	481
25.4060	611
25.4134	743
25.4208	847
25.4282	1087
25.4356	1194
25.4430	1414
25.4504	1651
25.4578	1873
25.4652	1976
25.4726	2214
25.4800	2336
25.4873	2391
25.4947	2529
25.5021	2541
25.5095	2677
25.5169	2686
25.5243	2680
25.5317	2603
25.5391	2719
25.5465	2630
25.5539	2622
25.5613	2807
25.5687	2853
25.5761	2989
25.5835	3154
25.5909	3316
25.5983	3441
25.6057	3404
25.6131	3125
25.6205	2774
25.6279	2456
25.6353	2242
25.6426	2071
25.6500	2068
25.6574	1975
25.6648	1963
25.6722	1864
25.6796	1737
25.6870	1501
25.6944	1302
25.7018	1017
25.7092	974
25.7166	780
25.7240	687
25.7314	628
25.7388	574
25.7462	524
25.7536	516
25.7610	479
25.7684	459
25.7758	420
25.7832	354
25.7906	330
25.7979	329
25.8053	304
25.8127	353
25.8201	326
25.8275	355
25.8349	352
25.8423	403
25.8497	402
25.8571	422
25.8645	463
25.8719	482
25.8793	475
25.8867	478
25.8941	432
25.9015	442
25.9089	418
25.9163	430
25.9237	425
25.9311	401
25.9385	419
25.9459	365
25.9532	350
25.9606	341
25.9680	332
25.9754	271
25.9828	284
25.9902	284
25.9976	260
26.0050	272
26.0124	256
26.0198	221
26.0272	212
26.0346	227
26.0420	227
26.0494	207
26.0568	214
26.0642	188
26.0716	205
26.0790	227
26.0864	181
26.0938	205
26.1012	203
26.1085	198
26.1159	184
26.1233	184
26.1307	193
26.1381	196
26.1455	197
26.1529	175
26.1603	199
26.1677	186
26.1751	198
26.1825	192
26.1899	179
26.1973	196
26.2047	211
26.2121	175
26.2195	186
26.2269	179
26.2343	177
26.2417	195
26.2491	178
26.2565	185
26.2638	164
26.2712	207
26.2786	208
26.2860	212
26.2934	195
26.3008	213
26.3082	201
26.3156	195
26.3230	192
26.3304	195
26.3378	195
26.3452	215
26.3526	206
26.3600	226
26.3674	176
26.3748	207
26.3822	220
26.3896	207
26.3970	238
26.4044	253
26.4118	258
26.4191	262
26.4265	300
26.4339	346
26.4413	342
26.4487	416
26.4561	412
26.4635	494
26.4709	567
26.4783	689
26.4857	810
26.4931	958
26.5005	1062
26.5079	1200
26.5153	1388
26.5227	1647
26.5301	1711
26.5375	1881
26.5449	1871
26.5523	1995
26.5597	1957
26.5671	2032
26.5744	1971
26.5818	1890
26.5892	1855
26.5966	1693
26.6040	1547
26.6114	1596
26.6188	1452
26.6262	1245
26.6336	1160
26.6410	1073
26.6484	1004
26.6558	876
26.6632	766
26.6706	709
26.6780	577
26.6854	507
26.6928	413
26.7002	393
26.7076	334
26.7150	318
26.7224	309
26.7297	302
26.7371	249
26.7445	256
26.7519	260
26.7593	230
26.7667	229
26.7741	246
26.7815	200
26.7889	211
26.7963	213
26.8037	238
26.8111	212
26.8185	181
26.8259	219
26.8333	204
26.8407	186
26.8481	226
26.8555	182
26.8629	190
26.8703	189
26.8777	180
26.8850	193
26.8924	203
26.8998	179
26.9072	204
26.9146	192
26.9220	203
26.9294	188
26.9368	159
26.9442	203
26.9516	180
26.9590	183
26.9664	200
26.9738	167
26.9812	188
26.9886	187
26.9960	184
27.0034	187
27.0108	185
27.0182	171
27.0256	180
27.0330	205
27.0404	154
27.0477	184
27.0551	221
27.0625	208
27.0699	191
27.0773	199
27.0847	154
27.0921	191
27.0995	202
27.1069	197
27.1143	173
27.1217	175
27.1291	190
27.1365	189
27.1439	174
27.1513	190
27.1587	199
27.1661	164
27.1735	190
27.1809	186
27.1883	173
27.1957	166
27.2030	176
27.2104	216
27.2178	214
27.2252	184
27.2326	180
27.2400	187
27.2474	192
27.2548	230
27.2622	204
27.2696	194
27.2770	203
27.2844	222
27.2918	205
27.2992	221
27.3066	232
27.3140	214
27.3214	258
27.3288	255
27.3362	263
27.3436	297
27.3510	325
27.3583	340
27.3657	396
27.3731	404
27.3805	508
27.3879	613
27.3953	665
27.4027	840
27.4101	1037
27.4175	1260
27.4249	1554
27.4323	1797
27.4397	2025
27.4471	2148
27.4545	2069
27.4619	2218
27.4693	2061
27.4767	1993
27.4841	1928
27.4915	2000
27.4989	1957
27.5063	1975
27.5136	1991
27.5210	1862
27.5284	1729
27.5358	1555
27.5432	1514
27.5506	1451
27.5580	1312
27.5654	1165
27.5728	1146
27.5802	1012
27.5876	935
27.5950	835
27.6024	772
27.6098	657
27.6172	627
27.6246	592
27.6320	549
27.6394	525
27.6468	513
27.6542	467
27.6616	425
27.6689	397
27.6763	377
27.6837	309
27.6911	320
27.6985	254
27.7059	298
27.7133	263
27.7207	255
27.7281	248
27.7355	227
27.7429	248
27.7503	229
27.7577	198
27.7651	209
27.7725	199
27.7799	208
27.7873	188
27.7947	186
27.8021	190
27.8095	194
27.8169	170
27.8242	194
27.8316	187
27.8390	162
27.8464	187
27.8538	184
27.8612	179
27.8686	179
27.8760	176
27.8834	172
27.8908	162
27.8982	166
27.9056	183
27.9130	178
27.9204	193
27.9278	171
27.9352	146
27.9426	148
27.9500	180
27.9574	151
27.9648	149
27.9722	157
27.9795	175
27.9869	161
27.9943	178
28.0017	162
28.0091	169
28.0165	175
28.0239	170
28.0313	188
28.0387	155
28.0461	152
28.0535	142
28.0609	181
28.0683	153
28.0757	183
28.0831	162
28.0905	154
28.0979	183
28.1053	147
28.1127	146
28.1201	159
28.1275	168
28.1348	160
28.1422	158
28.1496	154
28.1570	139
28.1644	164
28.1718	157
28.1792	175
28.1866	145
28.1940	172
28.2014	175
28.2088	142
28.2162	147
28.2236	158
28.2310	155
28.2384	167
28.2458	154
28.2532	191
28.2606	161
28.2680	156
28.2754	172
28.2828	160
28.2901	171
28.2975	178
28.3049	148
28.3123	168
28.3197	166
28.3271	174
28.3345	153
28.3419	193
28.3493	157
28.3567	195
28.3641	180
28.3715	221
28.3789	222
28.3863	244
28.3937	244
28.4011	272
28.4085	313
28.4159	346
28.4233	424
28.4307	438
28.4381	410
28.4454	495
28.4528	559
28.4602	495
28.4676	570
28.4750	629
28.4824	564
28.4898	558
28.4972	576
28.5046	564
28.5120	575
28.5194	533
28.5268	547
28.5342	507
28.5416	518
28.5490	496
28.5564	445
28.5638	401
28.5712	456
28.5786	372
28.5860	343
28.5934	349
28.6008	294
28.6081	265
28.6155	267
28.6229	251
28.6303	227
28.6377	226
28.6451	218
28.6525	187
28.6599	200
28.6673	201
28.6747	152
28.6821	151
28.6895	185
28.6969	182
28.7043	176
28.7117	166
28.7191	155
28.7265	154
28.7339	144
28.7413	152
28.7487	142
28.7561	146
28.7634	152
28.7708	133
28.7782	141
28.7856	161
28.7930	179
28.8004	130
28.8078	140
28.8152	175
28.8226	170
28.8300	150
28.8374	162
28.8448	165
28.8522	180
28.8596	149
28.8670	187
28.8744	176
28.8818	213
28.8892	204
28.8966	199
28.9040	249
28.9114	193
28.9187	185
28.9261	205
28.9335	226
28.9409	229
28.9483	205
28.9557	243
28.9631	276
28.9705	284
28.9779	303
28.9853	308
28.9927	367
29.0001	367
29.0075	370
29.0149	362
29.0223	384
29.0297	370
29.0371	408
29.0445	396
29.0519	384
29.0593	435
29.0667	379
29.0740	406
29.0814	375
29.0888	370
29.0962	360
29.1036	338
29.1110	317
29.1184	276
29.1258	283
29.1332	264
29.1406	270
29.1480	267
29.1554	236
29.1628	224
29.1702	202
29.1776	200
29.1850	155
29.1924	177
29.1998	184
29.2072	179
29.2146	179
29.2220	176
29.2293	175
29.2367	165
29.2441	154
29.2515	138
29.2589	151
29.2663	153
29.2737	162
29.2811	129
29.2885	135
29.2959	159
29.3033	145
29.3107	128
29.3181	142
29.3255	124
29.3329	144
29.3403	147
29.3477	133
29.3551	155
29.3625	148
29.3699	153
29.3773	141
29.3846	146
29.3920	133
29.3994	138
29.4068	125
29.4142	119
29.4216	134
29.4290	118
29.4364	128
29.4438	144
29.4512	129
29.4586	130
29.4660	143
29.4734	136
29.4808	151
29.4882	119
29.4956	135
29.5030	159
29.5104	121
29.5178	130
29.5252	130
29.5326	140
29.5399	145
29.5473	129
29.5547	139
29.5621	167
29.5695	135
29.5769	157
29.5843	125
29.5917	140
29.5991	141
29.6065	129
29.6139	160
29.6213	145
29.6287	130
29.6361	155
29.6435	143
29.6509	150
29.6583	125
29.6657	139
29.6731	123
29.6805	146
29.6879	139
29.6952	143
29.7026	134
29.7100	142
29.7174	132
29.7248	142
29.7322	132
29.7396	137
29.7470	132
29.7544	127
29.7618	125
29.7692	98
29.7766	137
29.7840	146
29.7914	126
29.7988	114
29.8062	112
29.8136	121
29.8210	117
29.8284	132
29.8358	145
29.8432	134
29.8505	122
29.8579	117
29.8653	134
29.8727	122
29.8801	124
29.8875	152
29.8949	147
29.9023	115
29.9097	114
29.9171	126
29.9245	140
29.9319	133
29.9393	127
29.9467	153
29.9541	116
29.9615	126
29.9689	132
29.9763	137
29.9837	120
29.9911	126
29.9985	124
30.0058	136
30.0132	138
30.0206	115
30.0280	107
30.0354	119
30.0428	124
30.0502	120
30.0576	123
30.0650	136
30.0724	118
30.0798	140
30.0872	135
30.0946	142
30.1020	147
30.1094	107
30.1168	131
30.1242	125
30.1316	130
30.1390	132
30.1464	129
30.1538	135
30.1612	120
30.1685	115
30.1759	137
30.1833	133
30.1907	135
30.1981	139
30.2055	99
30.2129	102
30.2203	135
30.2277	137
30.2351	132
30.2425	123
30.2499	142
30.2573	126
30.2647	128
30.2721	127
30.2795	119
30.2869	122
30.2943	111
30.3017	127
30.3091	139
30.3165	126
30.3238	152
30.3312	131
30.3386	125
30.3460	116
30.3534	135
30.3608	154
30.3682	131
30.3756	139
30.3830	137
30.3904	146
30.3978	137
30.4052	147
30.4126	127
30.4200	145
30.4274	156
30.4348	179
30.4422	181
30.4496	219
30.4570	259
30.4644	258
30.4718	298
30.4791	311
30.4865	344
30.4939	378
30.5013	342
30.5087	349
30.5161	361
30.5235	325
30.5309	306
30.5383	332
30.5457	338
30.5531	351
30.5605	324
30.5679	354
30.5753	330
30.5827	320
30.5901	285
30.5975	228
30.6049	227
30.6123	245
30.6197	197
30.6271	190
30.6344	214
30.6418	198
30.6492	193
30.6566	181
30.6640	161
30.6714	155
30.6788	164
30.6862	154
30.6936	157
30.7010	167
30.7084	134
30.7158	161
30.7232	180
30.7306	162
30.7380	150
30.7454	130
30.7528	155
30.7602	158
30.7676	127
30.7750	166
30.7824	150
30.7897	161
30.7971	140
30.8045	158
30.8119	129
30.8193	146
30.8267	148
30.8341	142
30.8415	149
30.8489	131
30.8563	130
30.8637	117
30.8711	129
30.8785	152
30.8859	141
30.8933	120
30.9007	153
30.9081	122
30.9155	115
30.9229	130
30.9303	130
30.9377	128
30.9450	129
30.9524	133
30.9598	111
30.9672	130
30.9746	121
30.9820	103
30.9894	122
30.9968	115
31.0042	117
31.0116	149
31.0190	117
31.0264	111
31.0338	127
31.0412	134
31.0486	138
31.0560	116
31.0634	132
31.0708	116
31.0782	134
31.0856	141
31.0930	124
31.1003	123
31.1077	104
31.1151	111
31.1225	109
31.1299	127
31.1373	114
31.1447	124
31.1521	127
31.1595	125
31.1669	144
31.1743	118
31.1817	109
31.1891	117
31.1965	129
31.2039	129
31.2113	108
31.2187	109
31.2261	121
31.2335	151
31.2409	120
31.2483	125
31.2556	132
31.2630	116
31.2704	117
31.2778	156
31.2852	126
31.2926	145
31.3000	104
31.3074	136
31.3148	138
31.3222	139
31.3296	150
31.3370	147
31.3444	158
31.3518	146
31.3592	147
31.3666	170
31.3740	195
31.3814	222
31.3888	204
31.3962	246
31.4036	234
31.4109	251
31.4183	277
31.4257	262
31.4331	278
31.4405	266
31.4479	294
31.4553	286
31.4627	283
31.4701	254
31.4775	280
31.4849	266
31.4923	266
31.4997	258
31.5071	267
31.5145	263
31.5219	244
31.5293	218
31.5367	239
31.5441	263
31.5515	232
31.5589	242
31.5662	280
31.5736	260
31.5810	284
31.5884	281
31.5958	279
31.6032	268
31.6106	282
31.6180	246
31.6254	268
31.6328	265
31.6402	284
31.6476	279
31.6550	270
31.6624	284
31.6698	259
31.6772	254
31.6846	235
31.6920	239
31.6994	237
31.7068	233
31.7142	219
31.7215	203
31.7289	209
31.7363	207
31.7437	192
31.7511	179
31.7585	212
31.7659	199
31.7733	169
31.7807	149
31.7881	154
31.7955	173
31.8029	138
31.8103	138
31.8177	134
31.8251	131
31.8325	152
31.8399	155
31.8473	161
31.8547	138
31.8621	141
31.8695	161
31.8769	171
31.8842	188
31.8916	172
31.8990	172
31.9064	161
31.9138	179
31.9212	166
31.9286	169
31.9360	177
31.9434	183
31.9508	162
31.9582	168
31.9656	199
31.9730	181
31.9804	179
31.9878	183
31.9952	165
32.0026	191
32.0100	175
32.0174	148
32.0248	174
32.0322	141
32.0395	182
32.0469	182
32.0543	145
32.0617	160
32.0691	135
32.0765	155
32.0839	159
32.0913	152
32.0987	138
32.1061	146
32.1135	127
32.1209	133
32.1283	131
32.1357	131
32.1431	133
32.1505	137
32.1579	112
32.1653	124
32.1727	130
32.1801	139
32.1875	139
32.1948	112
32.2022	126
32.2096	107
32.2170	113
32.2244	142
32.2318	114
32.2392	109
32.2466	109
32.2540	111
32.2614	108
32.2688	125
32.2762	107
32.2836	96
32.2910	96
32.2984	112
32.3058	113
32.3132	119
32.3206	100
32.3280	129
32.3354	131
32.3428	120
32.3501	115
32.3575	99
32.3649	113
32.3723	129
32.3797	110
32.3871	117
32.3945	112
32.4019	114
32.4093	122
32.4167	114
32.4241	132
32.4315	118
32.4389	132
32.4463	115
32.4537	128
32.4611	129
32.4685	111
32.4759	108
32.4833	122
32.4907	124
32.4981	116
32.5054	102
32.5128	130
32.5202	138
32.5276	127
32.5350	108
32.5424	109
32.5498	123
32.5572	128
32.5646	130
32.5720	116
32.5794	142
32.5868	126
32.5942	114
32.6016	119
32.6090	135
32.6164	120
32.6238	121
32.6312	117
32.6386	147
32.6460	111
32.6534	140
32.6607	124
32.6681	113
32.6755	114
32.6829	111
32.6903	90
32.6977	128
32.7051	114
32.7125	130
32.7199	115
32.7273	102
32.7347	110
32.7421	106
32.7495	107
32.7569	132
32.7643	114
32.7717	116
32.7791	116
32.7865	137
32.7939	118
32.8013	104
32.8087	107
32.8160	119
32.8234	121
32.8308	113
32.8382	120
32.8456	124
32.8530	117
32.8604	126
32.8678	133
32.8752	123
32.8826	153
32.8900	129
32.8974	131
32.9048	114
32.9122	147
32.9196	114
32.9270	163
32.9344	136
32.9418	148
32.9492	129
32.9566	154
32.9640	117
32.9713	149
32.9787	138
32.9861	113
32.9935	129
33.0009	136
33.0083	122
33.0157	126
33.0231	148
33.0305	103
33.0379	126
33.0453	143
33.0527	144
33.0601	110
33.0675	134
33.0749	134
33.0823	135
33.0897	110
33.0971	128
33.1045	116
33.1119	123
33.1193	114
33.1266	122
33.1340	107
33.1414	95
33.1488	120
33.1562	109
33.1636	119
33.1710	142
33.1784	111
33.1858	118
33.1932	122
33.2006	121
33.2080	137
33.2154	120
33.2228	143
33.2302	157
33.2376	133
33.2450	149
33.2524	151
33.2598	141
33.2672	173
33.2746	171
33.2819	174
33.2893	179
33.2967	180
33.3041	210
33.3115	207
33.3189	224
33.3263	210
33.3337	202
33.3411	193
33.3485	183
33.3559	233
33.3633	201
33.3707	205
33.3781	219
33.3855	175
33.3929	188
33.4003	188
33.4077	197
33.4151	177
33.4225	219
33.4299	204
33.4373	191
33.4446	216
33.4520	198
33.4594	169
33.4668	182
33.4742	194
33.4816	215
33.4890	235
33.4964	247
33.5038	273
33.5112	307
33.5186	337
33.5260	334
33.5334	321
33.5408	378
33.5482	402
33.5556	403
33.5630	463
33.5704	484
33.5778	486
33.5852	533
33.5926	558
33.5999	604
33.6073	561
33.6147	584
33.6221	563
33.6295	536
33.6369	506
33.6443	528
33.6517	518
33.6591	528
33.6665	502
33.6739	455
33.6813	466
33.6887	398
33.6961	381
33.7035	341
33.7109	370
33.7183	310
33.7257	284
33.7331	301
33.7405	238
33.7479	252
33.7552	267
33.7626	223
33.7700	220
33.7774	201
33.7848	185
33.7922	173
33.7996	167
33.8070	119
33.8144	151
33.8218	145
33.8292	133
33.8366	145
33.8440	141
33.8514	137
33.8588	118
33.8662	128
33.8736	134
33.8810	126
33.8884	142
33.8958	126
33.9032	108
33.9105	149
33.9179	136
33.9253	126
33.9327	158
33.9401	152
33.9475	152
33.9549	155
33.9623	131
33.9697	169
33.9771	143
33.9845	150
33.9919	144
33.9993	169
34.0067	150
34.0141	143
34.0215	160
34.0289	143
34.0363	173
34.0437	186
34.0511	182
34.0585	201
34.0658	185
34.0732	197
34.0806	184
34.0880	220
34.0954	210
34.1028	178
34.1102	148
34.1176	167
34.1250	184
34.1324	162
34.1398	189
34.1472	206
34.1546	195
34.1620	187
34.1694	171
34.1768	184
34.1842	159
34.1916	151
34.1990	148
34.2064	136
34.2138	134
34.2211	138
34.2285	146
34.2359	141
34.2433	141
34.2507	160
34.2581	150
34.2655	142
34.2729	111
34.2803	136
34.2877	129
34.2951	114
34.3025	124
34.3099	123
34.3173	88
34.3247	116
34.3321	121
34.3395	121
34.3469	109
34.3543	129
34.3617	103
34.3691	122
34.3764	95
34.3838	103
34.3912	105
34.3986	97
34.4060	111
34.4134	107
34.4208	117
34.4282	123
34.4356	90
34.4430	110
34.4504	101
34.4578	113
34.4652	122
34.4726	113
34.4800	93
34.4874	109
34.4948	131
34.5022	109
34.5096	128
34.5170	128
34.5244	115
34.5317	94
34.5391	119
34.5465	115
34.5539	123
34.5613	102
34.5687	119
34.5761	90
34.5835	119
34.5909	102
34.5983	117
34.6057	122
34.6131	106
34.6205	122
34.6279	126
34.6353	132
34.6427	101
34.6501	99
34.6575	106
34.6649	116
34.6723	111
34.6797	124
34.6870	108
34.6944	121
34.7018	113
34.7092	121
34.7166	117
34.7240	102
34.7314	113
34.7388	122
34.7462	105
34.7536	95
34.7610	98
34.7684	122
34.7758	119
34.7832	95
34.7906	119
34.7980	110
34.8054	116
34.8128	115
34.8202	126
34.8276	132
34.8350	116
34.8423	126
34.8497	120
34.8571	122
34.8645	121
34.8719	111
34.8793	114
34.8867	117
34.8941	136
34.9015	125
34.9089	105
34.9163	136
34.9237	133
34.9311	148
34.9385	159
34.9459	164
34.9533	158
34.9607	157
34.9681	202
34.9755	190
34.9829	195
34.9903	189
34.9977	192
35.0050	175
35.0124	166
35.0198	168
35.0272	150
35.0346	164
35.0420	177
35.0494	197
35.0568	183
35.0642	144
35.0716	187
35.0790	175
35.0864	209
35.0938	170
35.1012	175
35.1086	182
35.1160	185
35.1234	190
35.1308	168
35.1382	176
35.1456	213
35.1530	196
35.1603	201
35.1677	188
35.1751	233
35.1825	189
35.1899	193
35.1973	188
35.2047	217
35.2121	231
35.2195	228
35.2269	232
35.2343	238
35.2417	223
35.2491	223
35.2565	217
35.2639	209
35.2713	241
35.2787	219
35.2861	202
35.2935	186
35.3009	191
35.3083	179
35.3156	165
35.3230	176
35.3304	165
35.3378	165
35.3452	147
35.3526	129
35.3600	147
35.3674	169
35.3748	161
35.3822	147
35.3896	141
35.3970	130
35.4044	144
35.4118	160
35.4192	146
35.4266	173
35.4340	162
35.4414	196
35.4488	190
35.4562	224
35.4636	188
35.4709	237
35.4783	236
35.4857	217
35.4931	224
35.5005	205
35.5079	231
35.5153	246
35.5227	227
35.5301	236
35.5375	196
35.5449	214
35.5523	215
35.5597	204
35.5671	186
35.5745	194
35.5819	211
35.5893	207
35.5967	154
35.6041	165
35.6115	182
35.6189	167
35.6262	142
35.6336	172
35.6410	159
35.6484	151
35.6558	149
35.6632	146
35.6706	145
35.6780	136
35.6854	131
35.6928	136
35.7002	121
35.7076	145
35.7150	137
35.7224	140
35.7298	131
35.7372	107
35.7446	99
35.7520	137
35.7594	117
35.7668	117
35.7742	130
35.7815	111
35.7889	129
35.7963	135
35.8037	122
35.8111	119
35.8185	117
35.8259	137
35.8333	128
35.8407	120
35.8481	115
35.8555	133
35.8629	157
35.8703	145
35.8777	138
35.8851	121
35.8925	149
35.8999	142
35.9073	139
35.9147	154
35.9221	160
35.9295	133
35.9368	167
35.9442	153
35.9516	166
35.9590	143
35.9664	156
35.9738	194
35.9812	193
35.9886	237
35.9960	261
36.0034	303
36.0108	334
36.0182	421
36.0256	452
36.0330	434
36.0404	491
36.0478	469
36.0552	423
36.0626	412
36.0700	383
36.0774	369
36.0848	391
36.0921	407
36.0995	382
36.1069	413
36.1143	374
36.1217	455
36.1291	453
36.1365	457
36.1439	406
36.1513	440
36.1587	393
36.1661	324
36.1735	363
36.1809	385
36.1883	361
36.1957	343
36.2031	338
36.2105	305
36.2179	302
36.2253	296
36.2327	291
36.2401	274
36.2474	241
36.2548	266
36.2622	289
36.2696	245
36.2770	236
36.2844	222
36.2918	270
36.2992	230
36.3066	235
36.3140	230
36.3214	255
36.3288	265
36.3362	251
36.3436	246
36.3510	252
36.3584	263
36.3658	249
36.3732	231
36.3806	254
36.3880	250
36.3954	224
36.4027	212
36.4101	226
36.4175	203
36.4249	197
36.4323	180
36.4397	182
36.4471	205
36.4545	178
36.4619	180
36.4693	185
36.4767	212
36.4841	164
36.4915	164
36.4989	162
36.5063	138
36.5137	156
36.5211	139
36.5285	133
36.5359	131
36.5433	147
36.5507	131
36.5580	140
36.5654	133
36.5728	146
36.5802	119
36.5876	109
36.5950	107
36.6024	107
36.6098	105
36.6172	109
36.6246	115
36.6320	126
36.6394	119
36.6468	147
36.6542	113
36.6616	114
36.6690	111
36.6764	103
36.6838	104
36.6912	125
36.6986	92
36.7060	115
36.7134	114
36.7207	124
36.7281	127
36.7355	119
36.7429	107
36.7503	104
36.7577	110
36.7651	100
36.7725	109
36.7799	116
36.7873	107
36.7947	110
36.8021	134
36.8095	105
36.8169	101
36.8243	122
36.8317	107
36.8391	97
36.8465	112
36.8539	109
36.8613	124
36.8687	113
36.8760	104
36.8834	102
36.8908	92
36.8982	117
36.9056	118
36.9130	110
36.9204	118
36.9278	113
36.9352	116
36.9426	111
36.9500	92
36.9574	118
36.9648	94
36.9722	121
36.9796	100
36.9870	126
36.9944	108
37.0018	103
37.0092	117
37.0166	108
37.0240	110
37.0313	106
37.0387	100
37.0461	129
37.0535	130
37.0609	125
37.0683	108
37.0757	105
37.0831	94
37.0905	123
37.0979	129
37.1053	107
37.1127	132
37.1201	153
37.1275	123
37.1349	155
37.1423	153
37.1497	146
37.1571	169
37.1645	157
37.1719	159
37.1793	168
37.1866	174
37.1940	175
37.2014	176
37.2088	169
37.2162	151
37.2236	159
37.2310	164
37.2384	137
37.2458	144
37.2532	156
37.2606	123
37.2680	151
37.2754	151
37.2828	147
37.2902	143
37.2976	129
37.3050	157
37.3124	138
37.3198	130
37.3272	129
37.3346	145
37.3419	125
37.3493	139
37.3567	107
37.3641	121
37.3715	121
37.3789	104
37.3863	114
37.3937	121
37.4011	122
37.4085	110
37.4159	127
37.4233	121
37.4307	135
37.4381	126
37.4455	131
37.4529	104
37.4603	116
37.4677	107
37.4751	127
37.4825	130
37.4899	129
37.4972	112
37.5046	117
37.5120	101
37.5194	112
37.5268	133
37.5342	123
37.5416	155
37.5490	136
37.5564	150
37.5638	161
37.5712	163
37.5786	148
37.5860	166
37.5934	147
37.6008	150
37.6082	141
37.6156	148
37.6230	190
37.6304	214
37.6378	200
37.6452	212
37.6525	205
37.6599	221
37.6673	258
37.6747	245
37.6821	276
37.6895	255
37.6969	315
37.7043	314
37.7117	265
37.7191	315
37.7265	333
37.7339	334
37.7413	350
37.7487	334
37.7561	333
37.7635	319
37.7709	312
37.7783	295
37.7857	296
37.7931	290
37.8005	300
37.8078	263
37.8152	238
37.8226	232
37.8300	237
37.8374	239
37.8448	246
37.8522	219
37.8596	209
37.8670	188
37.8744	219
37.8818	176
37.8892	175
37.8966	180
37.9040	156
37.9114	180
37.9188	152
37.9262	120
37.9336	115
37.9410	136
37.9484	112
37.9558	145
37.9631	157
37.9705	137
37.9779	131
37.9853	126
37.9927	127
38.0001	126
38.0075	125
38.0149	125
38.0223	129
38.0297	143
38.0371	129
38.0445	101
38.0519	136
38.0593	125
38.0667	120
38.0741	127
38.0815	127
38.0889	111
38.0963	109
38.1037	136
38.1111	124
38.1184	134
38.1258	126
38.1332	145
38.1406	132
38.1480	135
38.1554	120
38.1628	128
38.1702	120
38.1776	130
38.1850	122
38.1924	106
38.1998	126
38.2072	104
38.2146	117
38.2220	112
38.2294	137
38.2368	105
38.2442	119
38.2516	158
38.2590	139
38.2664	115
38.2738	139
38.2811	157
38.2885	141
38.2959	146
38.3033	137
38.3107	135
38.3181	147
38.3255	151
38.3329	140
38.3403	151
38.3477	151
38.3551	158
38.3625	172
38.3699	160
38.3773	153
38.3847	145
38.3921	139
38.3995	145
38.4069	152
38.4143	154
38.4217	148
38.4291	146
38.4364	152
38.4438	168
38.4512	150
38.4586	162
38.4660	164
38.4734	163
38.4808	175
38.4882	166
38.4956	162
38.5030	166
38.5104	190
38.5178	169
38.5252	185
38.5326	174
38.5400	184
38.5474	202
38.5548	207
38.5622	200
38.5696	172
38.5770	174
38.5844	194
38.5917	184
38.5991	167
38.6065	159
38.6139	163
38.6213	159
38.6287	167
38.6361	160
38.6435	151
38.6509	149
38.6583	158
38.6657	161
38.6731	133
38.6805	137
38.6879	132
38.6953	131
38.7027	142
38.7101	130
38.7175	130
38.7249	140
38.7323	132
38.7397	158
38.7470	121
38.7544	130
38.7618	122
38.7692	130
38.7766	136
38.7840	142
38.7914	141
38.7988	136
38.8062	158
38.8136	149
38.8210	135
38.8284	131
38.8358	127
38.8432	132
38.8506	129
38.8580	135
38.8654	124
38.8728	124
38.8802	122
38.8876	130
38.8950	145
38.9023	126
38.9097	138
38.9171	134
38.9245	140
38.9319	123
38.9393	125
38.9467	131
38.9541	142
38.9615	137
38.9689	148
38.9763	143
38.9837	148
38.9911	138
38.9985	143
39.0059	147
39.0133	131
39.0207	141
39.0281	156
39.0355	125
39.0429	133
39.0503	162
39.0576	131
39.0650	147
39.0724	120
39.0798	131
39.0872	161
39.0946	154
39.1020	165
39.1094	162
39.1168	146
39.1242	172
39.1316	164
39.1390	153
39.1464	156
39.1538	172
39.1612	160
39.1686	180
39.1760	192
39.1834	244
39.1908	215
39.1982	224
39.2056	249
39.2129	294
39.2203	319
39.2277	381
39.2351	406
39.2425	512
39.2499	626
39.2573	666
39.2647	745
39.2721	762
39.2795	842
39.2869	853
39.2943	771
39.3017	746
39.3091	664
39.3165	634
39.3239	626
39.3313	600
39.3387	629
39.3461	648
39.3535	707
39.3609	712
39.3682	719
39.3756	786
39.3830	726
39.3904	753
39.3978	676
39.4052	661
39.4126	616
39.4200	570
39.4274	546
39.4348	542
39.4422	491
39.4496	451
39.4570	460
39.4644	460
39.4718	411
39.4792	429
39.4866	370
39.4940	419
39.5014	355
39.5088	378
39.5162	358
39.5235	348
39.5309	316
39.5383	315
39.5457	289
39.5531	313
39.5605	270
39.5679	279
39.5753	264
39.5827	234
39.5901	240
39.5975	207
39.6049	246
39.6123	237
39.6197	209
39.6271	196
39.6345	174
39.6419	192
39.6493	204
39.6567	197
39.6641	167
39.6715	171
39.6788	152
39.6862	152
39.6936	148
39.7010	161
39.7084	146
39.7158	155
39.7232	179
39.7306	126
39.7380	154
39.7454	145
39.7528	143
39.7602	139
39.7676	135
39.7750	125
39.7824	141
39.7898	146
39.7972	157
39.8046	143
39.8120	159
39.8194	143
39.8268	146
39.8342	162
39.8415	126
39.8489	151
39.8563	144
39.8637	159
39.8711	141
39.8785	116
39.8859	152
39.8933	149
39.9007	159
39.9081	148
39.9155	157
39.9229	150
39.9303	147
39.9377	130
39.9451	163
39.9525	155
39.9599	156
39.9673	138
39.9747	155
39.9821	154
39.9895	134
39.9968	152
