2.0000	149
2.0074	136
2.0148	147
2.0222	125
2.0296	129
2.0370	132
2.0444	140
2.0518	147
2.0592	136
2.0666	134
2.0740	162
2.0813	134
2.0887	145
2.0961	142
2.1035	155
2.1109	147
2.1183	128
2.1257	124
2.1331	146
2.1405	166
2.1479	159
2.1553	134
2.1627	141
2.1701	136
2.1775	137
2.1849	149
2.1923	150
2.1997	117
2.2071	119
2.2145	121
2.2219	152
2.2293	137
2.2366	141
2.2440	129
2.2514	138
2.2588	116
2.2662	154
2.2736	132
2.2810	152
2.2884	133
2.2958	146
2.3032	122
2.3106	138
2.3180	128
2.3254	139
2.3328	138
2.3402	132
2.3476	133
2.3550	131
2.3624	140
2.3698	142
2.3772	127
2.3846	132
2.3919	130
2.3993	110
2.4067	126
2.4141	145
2.4215	131
2.4289	126
2.4363	107
2.4437	126
2.4511	107
2.4585	143
2.4659	138
2.4733	131
2.4807	113
2.4881	138
2.4955	137
2.5029	133
2.5103	122
2.5177	146
2.5251	134
2.5325	124
2.5399	129
2.5472	127
2.5546	133
2.5620	122
2.5694	116
2.5768	119
2.5842	125
2.5916	115
2.5990	117
2.6064	110
2.6138	133
2.6212	125
2.6286	127
2.6360	105
2.6434	102
2.6508	110
2.6582	122
2.6656	115
2.6730	131
2.6804	115
2.6878	108
2.6952	115
2.7025	121
2.7099	122
2.7173	143
2.7247	113
2.7321	127
2.7395	114
2.7469	107
2.7543	111
2.7617	137
2.7691	104
2.7765	105
2.7839	120
2.7913	115
2.7987	120
2.8061	120
2.8135	112
2.8209	115
2.8283	109
2.8357	132
2.8431	127
2.8505	120
2.8579	118
2.8652	104
2.8726	123
2.8800	106
2.8874	119
2.8948	123
2.9022	97
2.9096	116
2.9170	119
2.9244	105
2.9318	112
2.9392	103
2.9466	109
2.9540	112
2.9614	121
2.9688	105
2.9762	127
2.9836	113
2.9910	114
2.9984	108
3.0058	95
3.0132	109
3.0205	99
3.0279	108
3.0353	105
3.0427	117
3.0501	137
3.0575	124
3.0649	110
3.0723	100
3.0797	101
3.0871	111
3.0945	117
3.1019	110
3.1093	101
3.1167	116
3.1241	124
3.1315	98
3.1389	103
3.1463	115
3.1537	97
3.1611	110
3.1685	125
3.1758	122
3.1832	100
3.1906	105
3.1980	108
3.2054	91
3.2128	119
3.2202	94
3.2276	94
3.2350	104
3.2424	118
3.2498	105
3.2572	102
3.2646	102
3.2720	117
3.2794	112
3.2868	90
3.2942	102
3.3016	101
3.3090	95
3.3164	106
3.3238	104
3.3311	108
3.3385	94
3.3459	90
3.3533	108
3.3607	110
3.3681	105
3.3755	94
3.3829	81
3.3903	90
3.3977	105
3.4051	99
3.4125	94
3.4199	102
3.4273	89
3.4347	98
3.4421	87
3.4495	103
3.4569	104
3.4643	107
3.4717	107
3.4791	108
3.4864	93
3.4938	96
3.5012	86
3.5086	82
3.5160	88
3.5234	92
3.5308	99
3.5382	92
3.5456	112
3.5530	98
3.5604	103
3.5678	85
3.5752	94
3.5826	91
3.5900	100
3.5974	109
3.6048	102
3.6122	95
3.6196	89
3.6270	101
3.6344	96
3.6417	96
3.6491	95
3.6565	88
3.6639	97
3.6713	94
3.6787	94
3.6861	86
3.6935	119
3.7009	97
3.7083	108
3.7157	99
3.7231	103
3.7305	95
3.7379	105
3.7453	98
3.7527	117
3.7601	94
3.7675	82
3.7749	89
3.7823	97
3.7897	103
3.7970	89
3.8044	94
3.8118	97
3.8192	83
3.8266	100
3.8340	94
3.8414	81
3.8488	91
3.8562	77
3.8636	84
3.8710	106
3.8784	86
3.8858	90
3.8932	89
3.9006	79
3.9080	97
3.9154	72
3.9228	75
3.9302	84
3.9376	78
3.9450	87
3.9523	73
3.9597	93
3.9671	100
3.9745	93
3.9819	84
3.9893	96
3.9967	70
4.0041	83
4.0115	92
4.0189	94
4.0263	102
4.0337	86
4.0411	97
4.0485	95
4.0559	92
4.0633	78
4.0707	94
4.0781	98
4.0855	97
4.0929	96
4.1003	93
4.1076	78
4.1150	83
4.1224	87
4.1298	83
4.1372	89
4.1446	84
4.1520	90
4.1594	86
4.1668	84
4.1742	86
4.1816	75
4.1890	74
4.1964	82
4.2038	81
4.2112	84
4.2186	79
4.2260	97
4.2334	75
4.2408	82
4.2482	70
4.2556	97
4.2629	82
4.2703	88
4.2777	75
4.2851	83
4.2925	63
4.2999	83
4.3073	76
4.3147	85
4.3221	85
4.3295	70
4.3369	77
4.3443	78
4.3517	93
4.3591	70
4.3665	75
4.3739	84
4.3813	81
4.3887	70
4.3961	74
4.4035	78
4.4109	79
4.4183	90
4.4256	84
4.4330	72
4.4404	70
4.4478	68
4.4552	81
4.4626	72
4.4700	78
4.4774	69
4.4848	76
4.4922	82
4.4996	69
4.5070	77
4.5144	61
4.5218	74
4.5292	74
4.5366	65
4.5440	74
4.5514	63
4.5588	73
4.5662	83
4.5736	88
4.5809	76
4.5883	74
4.5957	88
4.6031	86
4.6105	72
4.6179	62
4.6253	77
4.6327	79
4.6401	76
4.6475	61
4.6549	85
4.6623	59
4.6697	72
4.6771	62
4.6845	87
4.6919	88
4.6993	76
4.7067	64
4.7141	84
4.7215	72
4.7289	69
4.7362	80
4.7436	63
4.7510	70
4.7584	79
4.7658	71
4.7732	71
4.7806	66
4.7880	63
4.7954	64
4.8028	60
4.8102	80
4.8176	69
4.8250	65
4.8324	79
4.8398	70
4.8472	61
4.8546	59
4.8620	78
4.8694	67
4.8768	64
4.8842	67
4.8915	77
4.8989	72
4.9063	70
4.9137	78
4.9211	74
4.9285	75
4.9359	69
4.9433	63
4.9507	80
4.9581	73
4.9655	77
4.9729	68
4.9803	64
4.9877	72
4.9951	75
5.0025	62
5.0099	67
5.0173	80
5.0247	73
5.0321	83
5.0395	78
5.0468	70
5.0542	62
5.0616	75
5.0690	70
5.0764	72
5.0838	70
5.0912	94
5.0986	69
5.1060	67
5.1134	78
5.1208	62
5.1282	53
5.1356	51
5.1430	70
5.1504	68
5.1578	62
5.1652	46
5.1726	57
5.1800	59
5.1874	69
5.1948	74
5.2021	70
5.2095	56
5.2169	59
5.2243	63
5.2317	81
5.2391	63
5.2465	74
5.2539	69
5.2613	60
5.2687	72
5.2761	54
5.2835	82
5.2909	76
5.2983	54
5.3057	71
5.3131	65
5.3205	57
5.3279	52
5.3353	60
5.3427	66
5.3501	80
5.3574	66
5.3648	73
5.3722	66
5.3796	50
5.3870	64
5.3944	61
5.4018	71
5.4092	78
5.4166	71
5.4240	79
5.4314	62
5.4388	66
5.4462	70
5.4536	66
5.4610	79
5.4684	68
5.4758	60
5.4832	60
5.4906	79
5.4980	60
5.5054	67
5.5127	62
5.5201	56
5.5275	59
5.5349	58
5.5423	69
5.5497	51
5.5571	52
5.5645	69
5.5719	62
5.5793	67
5.5867	79
5.5941	72
5.6015	78
5.6089	65
5.6163	64
5.6237	61
5.6311	71
5.6385	73
5.6459	70
5.6533	79
5.6607	79
5.6680	78
5.6754	54
5.6828	77
5.6902	67
5.6976	79
5.7050	68
5.7124	71
5.7198	73
5.7272	64
5.7346	79
5.7420	86
5.7494	66
5.7568	80
5.7642	75
5.7716	74
5.7790	88
5.7864	81
5.7938	86
5.8012	87
5.8086	103
5.8160	79
5.8233	102
5.8307	106
5.8381	113
5.8455	107
5.8529	121
5.8603	136
5.8677	131
5.8751	114
5.8825	129
5.8899	132
5.8973	140
5.9047	147
5.9121	165
5.9195	185
5.9269	205
5.9343	210
5.9417	251
5.9491	274
5.9565	286
5.9639	294
5.9713	359
5.9786	430
5.9860	588
5.9934	732
6.0008	972
6.0082	1281
6.0156	1473
6.0230	1635
6.0304	1527
6.0378	1345
6.0452	1110
6.0526	859
6.0600	699
6.0674	501
6.0748	442
6.0822	349
6.0896	275
6.0970	268
6.1044	196
6.1118	178
6.1192	116
6.1266	120
6.1340	109
6.1413	100
6.1487	95
6.1561	100
6.1635	106
6.1709	81
6.1783	79
6.1857	79
6.1931	79
6.2005	82
6.2079	90
6.2153	79
6.2227	73
6.2301	81
6.2375	76
6.2449	83
6.2523	90
6.2597	86
6.2671	78
6.2745	66
6.2819	78
6.2893	63
6.2966	77
6.3040	74
6.3114	76
6.3188	77
6.3262	71
6.3336	68
6.3410	76
6.3484	57
6.3558	77
6.3632	81
6.3706	84
6.3780	71
6.3854	74
6.3928	58
6.4002	67
6.4076	71
6.4150	70
6.4224	75
6.4298	53
6.4372	75
6.4446	66
6.4519	66
6.4593	66
6.4667	62
6.4741	78
6.4815	70
6.4889	70
6.4963	80
6.5037	59
6.5111	64
6.5185	77
6.5259	70
6.5333	66
6.5407	59
6.5481	62
6.5555	69
6.5629	81
6.5703	71
6.5777	79
6.5851	67
6.5925	67
6.5999	67
6.6072	65
6.6146	81
6.6220	50
6.6294	68
6.6368	74
6.6442	70
6.6516	66
6.6590	60
6.6664	83
6.6738	61
6.6812	65
6.6886	64
6.6960	70
6.7034	55
6.7108	57
6.7182	55
6.7256	72
6.7330	67
6.7404	67
6.7478	57
6.7552	77
6.7625	58
6.7699	65
6.7773	65
6.7847	48
6.7921	67
6.7995	67
6.8069	77
6.8143	65
6.8217	71
6.8291	66
6.8365	55
6.8439	54
6.8513	63
6.8587	57
6.8661	75
6.8735	66
6.8809	55
6.8883	71
6.8957	61
6.9031	48
6.9105	76
6.9178	57
6.9252	67
6.9326	64
6.9400	62
6.9474	70
6.9548	66
6.9622	70
6.9696	61
6.9770	70
6.9844	68
6.9918	49
6.9992	65
7.0066	54
7.0140	65
7.0214	54
7.0288	77
7.0362	68
7.0436	55
7.0510	60
7.0584	54
7.0658	72
7.0731	61
7.0805	55
7.0879	68
7.0953	62
7.1027	69
7.1101	84
7.1175	61
7.1249	58
7.1323	59
7.1397	53
7.1471	66
7.1545	81
7.1619	58
7.1693	59
7.1767	64
7.1841	61
7.1915	61
7.1989	69
7.2063	50
7.2137	55
7.2211	52
7.2284	61
7.2358	55
7.2432	43
7.2506	62
7.2580	55
7.2654	44
7.2728	73
7.2802	61
7.2876	58
7.2950	52
7.3024	60
7.3098	60
7.3172	62
7.3246	60
7.3320	58
7.3394	54
7.3468	61
7.3542	59
7.3616	63
7.3690	53
7.3764	50
7.3837	50
7.3911	47
7.3985	61
7.4059	70
7.4133	49
7.4207	65
7.4281	66
7.4355	57
7.4429	63
7.4503	65
7.4577	50
7.4651	63
7.4725	70
7.4799	64
7.4873	61
7.4947	62
7.5021	74
7.5095	49
7.5169	53
7.5243	65
7.5317	65
7.5390	55
7.5464	65
7.5538	67
7.5612	68
7.5686	48
7.5760	68
7.5834	76
7.5908	67
7.5982	64
7.6056	62
7.6130	59
7.6204	69
7.6278	67
7.6352	48
7.6426	62
7.6500	57
7.6574	71
7.6648	66
7.6722	56
7.6796	59
7.6870	64
7.6944	66
7.7017	62
7.7091	67
7.7165	55
7.7239	55
7.7313	57
7.7387	59
7.7461	61
7.7535	52
7.7609	57
7.7683	61
7.7757	72
7.7831	52
7.7905	64
7.7979	67
7.8053	53
7.8127	47
7.8201	63
7.8275	54
7.8349	62
7.8423	66
7.8497	77
7.8570	64
7.8644	64
7.8718	70
7.8792	60
7.8866	57
7.8940	77
7.9014	67
7.9088	61
7.9162	62
7.9236	56
7.9310	58
7.9384	63
7.9458	44
7.9532	68
7.9606	67
7.9680	66
7.9754	64
7.9828	75
7.9902	49
7.9976	55
8.0050	64
8.0123	57
8.0197	54
8.0271	59
8.0345	73
8.0419	58
8.0493	56
8.0567	55
8.0641	63
8.0715	78
8.0789	70
8.0863	84
8.0937	69
8.1011	68
8.1085	68
8.1159	69
8.1233	75
8.1307	75
8.1381	66
8.1455	71
8.1529	92
8.1603	68
8.1676	94
8.1750	73
8.1824	98
8.1898	79
8.1972	100
8.2046	104
8.2120	92
8.2194	110
8.2268	118
8.2342	105
8.2416	122
8.2490	122
8.2564	129
8.2638	153
8.2712	138
8.2786	135
8.2860	120
8.2934	166
8.3008	174
8.3082	191
8.3156	177
8.3229	167
8.3303	194
8.3377	214
8.3451	216
8.3525	242
8.3599	245
8.3673	292
8.3747	258
8.3821	325
8.3895	367
8.3969	406
8.4043	432
8.4117	472
8.4191	559
8.4265	605
8.4339	677
8.4413	805
8.4487	946
8.4561	1137
8.4635	1376
8.4709	1668
8.4782	2089
8.4856	2522
8.4930	3178
8.5004	3553
8.5078	3890
8.5152	4009
8.5226	4070
8.5300	3763
8.5374	3540
8.5448	3077
8.5522	2490
8.5596	2276
8.5670	1830
8.5744	1546
8.5818	1268
8.5892	1015
8.5966	792
8.6040	592
8.6114	554
8.6188	396
8.6262	332
8.6335	278
8.6409	211
8.6483	191
8.6557	182
8.6631	185
8.6705	161
8.6779	136
8.6853	128
8.6927	143
8.7001	143
8.7075	116
8.7149	140
8.7223	136
8.7297	116
8.7371	110
8.7445	126
8.7519	108
8.7593	112
8.7667	118
8.7741	119
8.7815	106
8.7888	108
8.7962	116
8.8036	87
8.8110	100
8.8184	116
8.8258	96
8.8332	93
8.8406	104
8.8480	85
8.8554	97
8.8628	99
8.8702	91
8.8776	90
8.8850	98
8.8924	81
8.8998	103
8.9072	99
8.9146	83
8.9220	104
8.9294	98
8.9368	81
8.9441	98
8.9515	96
8.9589	97
8.9663	78
8.9737	82
8.9811	80
8.9885	73
8.9959	74
9.0033	99
9.0107	89
9.0181	86
9.0255	84
9.0329	81
9.0403	73
9.0477	96
9.0551	93
9.0625	83
9.0699	65
9.0773	79
9.0847	65
9.0921	83
9.0994	87
9.1068	72
9.1142	69
9.1216	52
9.1290	92
9.1364	91
9.1438	92
9.1512	77
9.1586	94
9.1660	81
9.1734	95
9.1808	70
9.1882	66
9.1956	56
9.2030	72
9.2104	74
9.2178	78
9.2252	80
9.2326	62
9.2400	69
9.2474	85
9.2548	91
9.2621	79
9.2695	67
9.2769	69
9.2843	80
9.2917	77
9.2991	92
9.3065	85
9.3139	79
9.3213	85
9.3287	77
9.3361	73
9.3435	85
9.3509	90
9.3583	63
9.3657	89
9.3731	68
9.3805	80
9.3879	66
9.3953	78
9.4027	62
9.4101	77
9.4174	81
9.4248	60
9.4322	64
9.4396	68
9.4470	69
9.4544	75
9.4618	69
9.4692	78
9.4766	68
9.4840	89
9.4914	80
9.4988	84
9.5062	64
9.5136	69
9.5210	68
9.5284	74
9.5358	57
9.5432	74
9.5506	69
9.5580	55
9.5654	65
9.5727	58
9.5801	61
9.5875	58
9.5949	66
9.6023	65
9.6097	80
9.6171	61
9.6245	73
9.6319	54
9.6393	83
9.6467	63
9.6541	64
9.6615	81
9.6689	66
9.6763	61
9.6837	70
9.6911	85
9.6985	61
9.7059	77
9.7133	65
9.7207	64
9.7280	64
9.7354	71
9.7428	65
9.7502	70
9.7576	69
9.7650	75
9.7724	72
9.7798	74
9.7872	74
9.7946	72
9.8020	67
9.8094	61
9.8168	61
9.8242	95
9.8316	66
9.8390	70
9.8464	61
9.8538	85
9.8612	63
9.8686	55
9.8760	68
9.8833	85
9.8907	53
9.8981	71
9.9055	56
9.9129	57
9.9203	61
9.9277	69
9.9351	72
9.9425	59
9.9499	75
9.9573	72
9.9647	56
9.9721	67
9.9795	45
9.9869	63
9.9943	74
10.0017	66
10.0091	73
10.0165	74
10.0239	74
10.0313	71
10.0386	58
10.0460	60
10.0534	60
10.0608	59
10.0682	64
10.0756	63
10.0830	76
10.0904	67
10.0978	54
10.1052	68
10.1126	54
10.1200	60
10.1274	66
10.1348	76
10.1422	59
10.1496	61
10.1570	73
10.1644	65
10.1718	67
10.1792	57
10.1866	74
10.1939	60
10.2013	73
10.2087	65
10.2161	67
10.2235	72
10.2309	54
10.2383	70
10.2457	69
10.2531	65
10.2605	69
10.2679	78
10.2753	51
10.2827	64
10.2901	52
10.2975	63
10.3049	55
10.3123	65
10.3197	55
10.3271	64
10.3345	67
10.3419	79
10.3492	61
10.3566	58
10.3640	63
10.3714	76
10.3788	77
10.3862	57
10.3936	54
10.4010	60
10.4084	56
10.4158	71
10.4232	72
10.4306	56
10.4380	69
10.4454	67
10.4528	65
10.4602	53
10.4676	57
10.4750	64
10.4824	61
10.4898	57
10.4972	53
10.5045	61
10.5119	55
10.5193	38
10.5267	78
10.5341	52
10.5415	58
10.5489	69
10.5563	57
10.5637	54
10.5711	59
10.5785	85
10.5859	68
10.5933	61
10.6007	69
10.6081	56
10.6155	55
10.6229	70
10.6303	77
10.6377	76
10.6451	63
10.6525	55
10.6598	63
10.6672	79
10.6746	73
10.6820	71
10.6894	75
10.6968	61
10.7042	73
10.7116	60
10.7190	63
10.7264	69
10.7338	54
10.7412	57
10.7486	61
10.7560	70
10.7634	61
10.7708	80
10.7782	66
10.7856	61
10.7930	70
10.8004	49
10.8078	58
10.8151	65
10.8225	65
10.8299	71
10.8373	68
10.8447	56
10.8521	51
10.8595	61
10.8669	68
10.8743	53
10.8817	47
10.8891	58
10.8965	49
10.9039	50
10.9113	67
10.9187	66
10.9261	69
10.9335	52
10.9409	49
10.9483	55
10.9557	59
10.9631	58
10.9705	66
10.9778	46
10.9852	47
10.9926	58
11.0000	61
11.0074	57
11.0148	53
11.0222	51
11.0296	63
11.0370	65
11.0444	42
11.0518	41
11.0592	58
11.0666	55
11.0740	59
11.0814	57
11.0888	64
11.0962	68
11.1036	49
11.1110	63
11.1184	58
11.1258	55
11.1331	55
11.1405	85
11.1479	68
11.1553	48
11.1627	61
11.1701	62
11.1775	68
11.1849	52
11.1923	65
11.1997	57
11.2071	66
11.2145	60
11.2219	55
11.2293	54
11.2367	58
11.2441	61
11.2515	69
11.2589	63
11.2663	64
11.2737	71
11.2811	54
11.2884	59
11.2958	76
11.3032	73
11.3106	57
11.3180	61
11.3254	59
11.3328	57
11.3402	66
11.3476	66
11.3550	67
11.3624	69
11.3698	62
11.3772	64
11.3846	68
11.3920	62
11.3994	61
11.4068	74
11.4142	67
11.4216	70
11.4290	67
11.4364	79
11.4437	69
11.4511	71
11.4585	70
11.4659	64
11.4733	75
11.4807	71
11.4881	67
11.4955	87
11.5029	67
11.5103	63
11.5177	99
11.5251	79
11.5325	93
11.5399	104
11.5473	93
11.5547	109
11.5621	98
11.5695	118
11.5769	119
11.5843	127
11.5917	130
11.5990	122
11.6064	189
11.6138	172
11.6212	227
11.6286	243
11.6360	251
11.6434	293
11.6508	384
11.6582	442
11.6656	516
11.6730	658
11.6804	746
11.6878	896
11.6952	1019
11.7026	1101
11.7100	1134
11.7174	1140
11.7248	1095
11.7322	1085
11.7396	1041
11.7470	868
11.7543	859
11.7617	773
11.7691	611
11.7765	611
11.7839	539
11.7913	462
11.7987	354
11.8061	288
11.8135	238
11.8209	207
11.8283	172
11.8357	137
11.8431	123
11.8505	113
11.8579	94
11.8653	119
11.8727	90
11.8801	117
11.8875	96
11.8949	98
11.9023	77
11.9096	79
11.9170	95
11.9244	102
11.9318	105
11.9392	107
11.9466	104
11.9540	106
11.9614	113
11.9688	125
11.9762	132
11.9836	163
11.9910	166
11.9984	185
12.0058	172
12.0132	162
12.0206	173
12.0280	152
12.0354	145
12.0428	154
12.0502	122
12.0576	135
12.0649	128
12.0723	120
12.0797	106
12.0871	107
12.0945	98
12.1019	104
12.1093	106
12.1167	113
12.1241	92
12.1315	110
12.1389	107
12.1463	112
12.1537	126
12.1611	132
12.1685	109
12.1759	144
12.1833	125
12.1907	132
12.1981	169
12.2055	179
12.2129	187
12.2202	189
12.2276	247
12.2350	256
12.2424	286
12.2498	346
12.2572	433
12.2646	461
12.2720	533
12.2794	558
12.2868	705
12.2942	779
12.3016	908
12.3090	1016
12.3164	1204
12.3238	1428
12.3312	1576
12.3386	1766
12.3460	2035
12.3534	2131
12.3608	2206
12.3682	2085
12.3755	2092
12.3829	1904
12.3903	1877
12.3977	1731
12.4051	1457
12.4125	1249
12.4199	1093
12.4273	924
12.4347	764
12.4421	609
12.4495	549
12.4569	405
12.4643	375
12.4717	274
12.4791	258
12.4865	230
12.4939	206
12.5013	183
12.5087	185
12.5161	177
12.5235	152
12.5309	134
12.5382	119
12.5456	122
12.5530	122
12.5604	131
12.5678	101
12.5752	114
12.5826	98
12.5900	84
12.5974	104
12.6048	81
12.6122	92
12.6196	81
12.6270	96
12.6344	84
12.6418	90
12.6492	82
12.6566	84
12.6640	94
12.6714	92
12.6788	98
12.6862	86
12.6935	75
12.7009	96
12.7083	90
12.7157	85
12.7231	94
12.7305	90
12.7379	71
12.7453	74
12.7527	72
12.7601	72
12.7675	84
12.7749	86
12.7823	64
12.7897	86
12.7971	66
12.8045	74
12.8119	93
12.8193	92
12.8267	90
12.8341	88
12.8415	71
12.8488	83
12.8562	79
12.8636	87
12.8710	86
12.8784	73
12.8858	82
12.8932	89
12.9006	79
12.9080	85
12.9154	85
12.9228	87
12.9302	73
12.9376	85
12.9450	89
12.9524	75
12.9598	93
12.9672	85
12.9746	90
12.9820	80
12.9894	93
12.9968	86
13.0041	95
13.0115	78
13.0189	60
13.0263	93
13.0337	103
13.0411	80
13.0485	85
13.0559	103
13.0633	99
13.0707	94
13.0781	134
13.0855	110
13.0929	120
13.1003	104
13.1077	126
13.1151	134
13.1225	157
13.1299	161
13.1373	204
13.1447	218
13.1521	237
13.1594	264
13.1668	292
13.1742	357
13.1816	406
13.1890	533
13.1964	599
13.2038	789
13.2112	890
13.2186	1010
13.2260	1145
13.2334	1143
13.2408	1078
13.2482	1207
13.2556	1168
13.2630	1143
13.2704	1077
13.2778	1006
13.2852	925
13.2926	868
13.3000	806
13.3074	678
13.3147	624
13.3221	528
13.3295	430
13.3369	390
13.3443	314
13.3517	258
13.3591	198
13.3665	169
13.3739	158
13.3813	137
13.3887	136
13.3961	128
13.4035	125
13.4109	126
13.4183	116
13.4257	126
13.4331	134
13.4405	115
13.4479	109
13.4553	126
13.4627	133
13.4700	139
13.4774	147
13.4848	139
13.4922	103
13.4996	128
13.5070	158
13.5144	139
13.5218	161
13.5292	164
13.5366	176
13.5440	173
13.5514	220
13.5588	250
13.5662	282
13.5736	322
13.5810	365
13.5884	393
13.5958	513
13.6032	552
13.6106	689
13.6180	860
13.6253	977
13.6327	1221
13.6401	1523
13.6475	1690
13.6549	1869
13.6623	2081
13.6697	2221
13.6771	2223
13.6845	2183
13.6919	2169
13.6993	2039
13.7067	1917
13.7141	1761
13.7215	1545
13.7289	1366
13.7363	1153
13.7437	996
13.7511	783
13.7585	663
13.7659	492
13.7733	413
13.7806	311
13.7880	276
13.7954	244
13.8028	181
13.8102	175
13.8176	157
13.8250	158
13.8324	142
13.8398	125
13.8472	121
13.8546	119
13.8620	117
13.8694	107
13.8768	112
13.8842	91
13.8916	129
13.8990	111
13.9064	84
13.9138	94
13.9212	109
13.9286	98
13.9359	103
13.9433	103
13.9507	95
13.9581	107
13.9655	96
13.9729	100
13.9803	89
13.9877	94
13.9951	99
14.0025	78
14.0099	89
14.0173	87
14.0247	95
14.0321	88
14.0395	84
14.0469	91
14.0543	117
14.0617	81
14.0691	80
14.0765	88
14.0839	94
14.0913	84
14.0986	116
14.1060	83
14.1134	73
14.1208	81
14.1282	88
14.1356	107
14.1430	67
14.1504	71
14.1578	96
14.1652	97
14.1726	77
14.1800	77
14.1874	88
14.1948	88
14.2022	83
14.2096	87
14.2170	83
14.2244	89
14.2318	80
14.2392	88
14.2466	86
14.2539	81
14.2613	86
14.2687	78
14.2761	89
14.2835	92
14.2909	90
14.2983	88
14.3057	94
14.3131	112
14.3205	98
14.3279	99
14.3353	103
14.3427	134
14.3501	149
14.3575	174
14.3649	160
14.3723	212
14.3797	225
14.3871	215
14.3945	254
14.4019	265
14.4092	280
14.4166	289
14.4240	267
14.4314	267
14.4388	248
14.4462	243
14.4536	211
14.4610	204
14.4684	182
14.4758	136
14.4832	114
14.4906	125
14.4980	115
14.5054	103
14.5128	101
14.5202	97
14.5276	96
14.5350	91
14.5424	94
14.5498	66
14.5572	79
14.5645	79
14.5719	93
14.5793	64
14.5867	87
14.5941	87
14.6015	87
14.6089	81
14.6163	79
14.6237	88
14.6311	75
14.6385	93
14.6459	90
14.6533	94
14.6607	79
14.6681	93
14.6755	93
14.6829	102
14.6903	103
14.6977	103
14.7051	99
14.7125	119
14.7198	127
14.7272	117
14.7346	153
14.7420	136
14.7494	187
14.7568	203
14.7642	215
14.7716	231
14.7790	255
14.7864	286
14.7938	291
14.8012	263
14.8086	296
14.8160	277
14.8234	252
14.8308	252
14.8382	246
14.8456	213
14.8530	221
14.8604	180
14.8678	166
14.8751	182
14.8825	133
14.8899	125
14.8973	131
14.9047	121
14.9121	98
14.9195	89
14.9269	83
14.9343	87
14.9417	65
14.9491	74
14.9565	91
14.9639	80
14.9713	83
14.9787	63
14.9861	82
14.9935	83
15.0009	81
15.0083	81
15.0157	61
15.0231	80
15.0304	69
15.0378	68
15.0452	86
15.0526	93
15.0600	70
15.0674	77
15.0748	85
15.0822	92
15.0896	84
15.0970	81
15.1044	83
15.1118	82
15.1192	94
15.1266	96
15.1340	121
15.1414	89
15.1488	95
15.1562	107
15.1636	124
15.1710	147
15.1784	145
15.1857	168
15.1931	166
15.2005	194
15.2079	221
15.2153	218
15.2227	230
15.2301	223
15.2375	219
15.2449	262
15.2523	220
15.2597	238
15.2671	214
15.2745	203
15.2819	200
15.2893	174
15.2967	175
15.3041	148
15.3115	142
15.3189	124
15.3263	112
15.3337	101
15.3410	111
15.3484	99
15.3558	91
15.3632	93
15.3706	78
15.3780	77
15.3854	97
15.3928	97
15.4002	74
15.4076	91
15.4150	75
15.4224	82
15.4298	84
15.4372	88
15.4446	75
15.4520	95
15.4594	99
15.4668	86
15.4742	93
15.4816	89
15.4890	104
15.4963	95
15.5037	126
15.5111	108
15.5185	134
15.5259	156
15.5333	149
15.5407	173
15.5481	165
15.5555	150
15.5629	154
15.5703	154
15.5777	150
15.5851	131
15.5925	166
15.5999	138
15.6073	133
15.6147	124
15.6221	96
15.6295	102
15.6369	108
15.6443	83
15.6516	80
15.6590	82
15.6664	89
15.6738	73
15.6812	83
15.6886	86
15.6960	79
15.7034	90
15.7108	75
15.7182	77
15.7256	77
15.7330	65
15.7404	65
15.7478	72
15.7552	71
15.7626	52
15.7700	66
15.7774	69
15.7848	66
15.7922	78
15.7996	73
15.8070	89
15.8143	59
15.8217	70
15.8291	75
15.8365	68
15.8439	83
15.8513	67
15.8587	76
15.8661	57
15.8735	59
15.8809	72
15.8883	56
15.8957	55
15.9031	65
15.9105	80
15.9179	72
15.9253	65
15.9327	63
15.9401	80
15.9475	77
15.9549	76
15.9623	71
15.9696	67
15.9770	81
15.9844	63
15.9918	65
15.9992	72
16.0066	69
16.0140	57
16.0214	76
16.0288	61
16.0362	83
16.0436	70
16.0510	79
16.0584	75
16.0658	73
16.0732	75
16.0806	70
16.0880	76
16.0954	79
16.1028	82
16.1102	77
16.1176	74
16.1249	80
16.1323	77
16.1397	74
16.1471	78
16.1545	74
16.1619	55
16.1693	72
16.1767	76
16.1841	69
16.1915	72
16.1989	83
16.2063	67
16.2137	84
16.2211	66
16.2285	76
16.2359	73
16.2433	72
16.2507	75
16.2581	75
16.2655	61
16.2729	90
16.2802	70
16.2876	90
16.2950	73
16.3024	78
16.3098	66
16.3172	72
16.3246	80
16.3320	73
16.3394	76
16.3468	83
16.3542	79
16.3616	87
16.3690	68
16.3764	67
16.3838	78
16.3912	70
16.3986	86
16.4060	80
16.4134	63
16.4208	69
16.4282	79
16.4355	89
16.4429	85
16.4503	77
16.4577	78
16.4651	75
16.4725	87
16.4799	89
16.4873	87
16.4947	101
16.5021	71
16.5095	86
16.5169	70
16.5243	97
16.5317	69
16.5391	88
16.5465	101
16.5539	77
16.5613	99
16.5687	72
16.5761	83
16.5835	97
16.5908	69
16.5982	86
16.6056	101
16.6130	86
16.6204	95
16.6278	98
16.6352	111
16.6426	113
16.6500	101
16.6574	107
16.6648	117
16.6722	105
16.6796	131
16.6870	139
16.6944	167
16.7018	166
16.7092	150
16.7166	162
16.7240	168
16.7314	197
16.7388	269
16.7461	310
16.7535	293
16.7609	354
16.7683	429
16.7757	457
16.7831	610
16.7905	647
16.7979	745
16.8053	810
16.8127	905
16.8201	1024
16.8275	1007
16.8349	953
16.8423	986
16.8497	1017
16.8571	964
16.8645	906
16.8719	787
16.8793	790
16.8867	659
16.8941	591
16.9014	521
16.9088	490
16.9162	411
16.9236	395
16.9310	393
16.9384	348
16.9458	332
16.9532	409
16.9606	393
16.9680	458
16.9754	630
16.9828	674
16.9902	885
16.9976	987
17.0050	1188
17.0124	1239
17.0198	1290
17.0272	1251
17.0346	1271
17.0420	1245
17.0494	1275
17.0567	1211
17.0641	1111
17.0715	1046
17.0789	953
17.0863	915
17.0937	726
17.1011	621
17.1085	507
17.1159	456
17.1233	421
17.1307	339
17.1381	307
17.1455	274
17.1529	175
17.1603	175
17.1677	162
17.1751	154
17.1825	127
17.1899	153
17.1973	120
17.2047	111
17.2120	147
17.2194	92
17.2268	138
17.2342	127
17.2416	118
17.2490	107
17.2564	89
17.2638	112
17.2712	113
17.2786	107
17.2860	108
17.2934	106
17.3008	110
17.3082	95
17.3156	127
17.3230	106
17.3304	117
17.3378	112
17.3452	98
17.3526	120
17.3600	116
17.3674	117
17.3747	93
17.3821	107
17.3895	109
17.3969	82
17.4043	106
17.4117	105
17.4191	92
17.4265	97
17.4339	81
17.4413	98
17.4487	115
17.4561	97
17.4635	122
17.4709	100
17.4783	112
17.4857	120
17.4931	112
17.5005	140
17.5079	110
17.5153	131
17.5227	145
17.5300	162
17.5374	145
17.5448	156
17.5522	165
17.5596	187
17.5670	186
17.5744	208
17.5818	219
17.5892	257
17.5966	277
17.6040	271
17.6114	299
17.6188	282
17.6262	284
17.6336	247
17.6410	251
17.6484	219
17.6558	245
17.6632	246
17.6706	236
17.6780	204
17.6853	207
17.6927	198
17.7001	181
17.7075	196
17.7149	247
17.7223	207
17.7297	226
17.7371	275
17.7445	300
17.7519	355
17.7593	375
17.7667	472
17.7741	584
17.7815	611
17.7889	727
17.7963	797
17.8037	892
17.8111	1040
17.8185	1092
17.8259	1227
17.8333	1332
17.8406	1440
17.8480	1438
17.8554	1425
17.8628	1410
17.8702	1405
17.8776	1354
17.8850	1255
17.8924	1188
17.8998	1088
17.9072	951
17.9146	794
17.9220	707
17.9294	632
17.9368	528
17.9442	442
17.9516	376
17.9590	349
17.9664	295
17.9738	236
17.9812	219
17.9886	206
17.9959	189
18.0033	164
18.0107	185
18.0181	177
18.0255	182
18.0329	166
18.0403	143
18.0477	146
18.0551	128
18.0625	137
18.0699	134
18.0773	118
18.0847	137
18.0921	129
18.0995	125
18.1069	110
18.1143	98
18.1217	125
18.1291	129
18.1365	123
18.1439	112
18.1512	107
18.1586	113
18.1660	130
18.1734	102
18.1808	108
18.1882	141
18.1956	127
18.2030	121
18.2104	120
18.2178	131
18.2252	119
18.2326	125
18.2400	98
18.2474	93
18.2548	105
18.2622	110
18.2696	99
18.2770	137
18.2844	124
18.2918	114
18.2992	126
18.3065	122
18.3139	119
18.3213	124
18.3287	135
18.3361	126
18.3435	125
18.3509	168
18.3583	133
18.3657	136
18.3731	149
18.3805	135
18.3879	167
18.3953	149
18.4027	162
18.4101	148
18.4175	169
18.4249	177
18.4323	180
18.4397	177
18.4471	160
18.4545	245
18.4618	240
18.4692	280
18.4766	315
18.4840	344
18.4914	411
18.4988	515
18.5062	620
18.5136	778
18.5210	865
18.5284	987
18.5358	1208
18.5432	1511
18.5506	1638
18.5580	1764
18.5654	1859
18.5728	2027
18.5802	1950
18.5876	1970
18.5950	1996
18.6024	1852
18.6098	1829
18.6171	1744
18.6245	1541
18.6319	1451
18.6393	1323
18.6467	1185
18.6541	1120
18.6615	968
18.6689	860
18.6763	754
18.6837	734
18.6911	629
18.6985	540
18.7059	469
18.7133	376
18.7207	352
18.7281	345
18.7355	285
18.7429	286
18.7503	232
18.7577	240
18.7651	196
18.7724	206
18.7798	205
18.7872	208
18.7946	193
18.8020	204
18.8094	185
18.8168	205
18.8242	219
18.8316	223
18.8390	232
18.8464	220
18.8538	238
18.8612	199
18.8686	256
18.8760	319
18.8834	307
18.8908	322
18.8982	343
18.9056	404
18.9130	477
18.9204	491
18.9278	566
18.9351	622
18.9425	664
18.9499	744
18.9573	764
18.9647	845
18.9721	787
18.9795	835
18.9869	805
18.9943	790
19.0017	734
19.0091	719
19.0165	654
19.0239	593
19.0313	522
19.0387	460
19.0461	426
19.0535	366
19.0609	332
19.0683	259
19.0757	234
19.0831	207
19.0904	206
19.0978	177
19.1052	158
19.1126	153
19.1200	137
19.1274	142
19.1348	162
19.1422	136
19.1496	137
19.1570	141
19.1644	128
19.1718	114
19.1792	124
19.1866	121
19.1940	153
19.2014	108
19.2088	124
19.2162	107
19.2236	122
19.2310	109
19.2384	96
19.2457	122
19.2531	106
19.2605	125
19.2679	115
19.2753	131
19.2827	94
19.2901	99
19.2975	118
19.3049	112
19.3123	114
19.3197	108
19.3271	121
19.3345	99
19.3419	149
19.3493	129
19.3567	111
19.3641	130
19.3715	157
19.3789	168
19.3863	160
19.3937	184
19.4010	209
19.4084	218
19.4158	301
19.4232	273
19.4306	330
19.4380	329
19.4454	379
19.4528	397
19.4602	426
19.4676	431
19.4750	435
19.4824	452
19.4898	435
19.4972	398
19.5046	428
19.5120	415
19.5194	362
19.5268	369
19.5342	329
19.5416	327
19.5490	301
19.5563	299
19.5637	271
19.5711	278
19.5785	249
19.5859	236
19.5933	215
19.6007	206
19.6081	209
19.6155	199
19.6229	175
19.6303	155
19.6377	134
19.6451	131
19.6525	129
19.6599	127
19.6673	114
19.6747	113
19.6821	138
19.6895	127
19.6969	97
19.7043	117
19.7116	106
19.7190	99
19.7264	114
19.7338	104
19.7412	113
19.7486	116
19.7560	111
19.7634	123
19.7708	110
19.7782	117
19.7856	116
19.7930	125
19.8004	142
19.8078	116
19.8152	127
19.8226	137
19.8300	136
19.8374	105
19.8448	134
19.8522	128
19.8596	121
19.8669	126
19.8743	126
19.8817	118
19.8891	116
19.8965	143
19.9039	128
19.9113	126
19.9187	111
19.9261	100
19.9335	117
19.9409	115
19.9483	119
19.9557	114
19.9631	141
19.9705	95
19.9779	120
19.9853	109
19.9927	110
20.0001	90
20.0075	117
20.0149	135
20.0222	122
20.0296	105
20.0370	116
20.0444	112
20.0518	132
20.0592	103
20.0666	146
20.0740	124
20.0814	121
20.0888	119
20.0962	132
20.1036	120
20.1110	131
20.1184	131
20.1258	122
20.1332	126
20.1406	114
20.1480	131
20.1554	128
20.1628	139
20.1702	126
20.1775	123
20.1849	129
20.1923	135
20.1997	127
20.2071	142
20.2145	136
20.2219	127
20.2293	132
20.2367	150
20.2441	158
20.2515	145
20.2589	157
20.2663	143
20.2737	160
20.2811	192
20.2885	188
20.2959	181
20.3033	191
20.3107	189
20.3181	202
20.3255	209
20.3328	189
20.3402	190
20.3476	191
20.3550	188
20.3624	217
20.3698	202
20.3772	209
20.3846	219
20.3920	216
20.3994	254
20.4068	246
20.4142	246
20.4216	278
20.4290	326
20.4364	371
20.4438	454
20.4512	511
20.4586	602
20.4660	729
20.4734	826
20.4808	1052
20.4882	1231
20.4955	1465
20.5029	1644
20.5103	1725
20.5177	1875
20.5251	1869
20.5325	1928
20.5399	1973
20.5473	1980
20.5547	1845
20.5621	1775
20.5695	1571
20.5769	1482
20.5843	1336
20.5917	1205
20.5991	1121
20.6065	984
20.6139	852
20.6213	696
20.6287	565
20.6361	521
20.6435	463
20.6508	416
20.6582	349
20.6656	314
20.6730	294
20.6804	240
20.6878	203
20.6952	251
20.7026	214
20.7100	220
20.7174	236
20.7248	183
20.7322	209
20.7396	207
20.7470	239
20.7544	229
20.7618	220
20.7692	258
20.7766	266
20.7840	269
20.7914	275
20.7988	298
20.8061	285
20.8135	313
20.8209	285
20.8283	302
20.8357	305
20.8431	308
20.8505	332
20.8579	365
20.8653	370
20.8727	380
20.8801	404
20.8875	460
20.8949	511
20.9023	524
20.9097	613
20.9171	684
20.9245	773
20.9319	860
20.9393	897
20.9467	902
20.9541	922
20.9614	967
20.9688	917
20.9762	908
20.9836	896
20.9910	875
20.9984	874
21.0058	771
21.0132	702
21.0206	684
21.0280	634
21.0354	529
21.0428	481
21.0502	452
21.0576	401
21.0650	343
21.0724	329
21.0798	326
21.0872	254
21.0946	222
21.1020	241
21.1094	193
21.1167	191
21.1241	185
21.1315	178
21.1389	177
21.1463	176
21.1537	188
21.1611	179
21.1685	185
21.1759	178
21.1833	178
21.1907	167
21.1981	157
21.2055	164
21.2129	195
21.2203	161
21.2277	206
21.2351	197
21.2425	213
21.2499	176
21.2573	202
21.2647	201
21.2720	182
21.2794	180
21.2868	176
21.2942	194
21.3016	195
21.3090	185
21.3164	211
21.3238	210
21.3312	194
21.3386	209
21.3460	221
21.3534	210
21.3608	221
21.3682	231
21.3756	260
21.3830	197
21.3904	231
21.3978	253
21.4052	268
21.4126	279
21.4200	323
21.4273	343
21.4347	359
21.4421	384
21.4495	510
21.4569	599
21.4643	706
21.4717	786
21.4791	914
21.4865	976
21.4939	1153
21.5013	1219
21.5087	1232
21.5161	1203
21.5235	1163
21.5309	1283
21.5383	1264
21.5457	1275
21.5531	1210
21.5605	1189
21.5679	1168
21.5753	988
21.5826	997
21.5900	915
21.5974	836
21.6048	748
21.6122	678
21.6196	626
21.6270	555
21.6344	564
21.6418	551
21.6492	563
21.6566	539
21.6640	598
21.6714	532
21.6788	620
21.6862	631
21.6936	659
21.7010	680
21.7084	717
21.7158	731
21.7232	733
21.7306	672
21.7379	733
21.7453	683
21.7527	691
21.7601	732
21.7675	643
21.7749	686
21.7823	603
21.7897	582
21.7971	633
21.8045	592
21.8119	573
21.8193	591
21.8267	584
21.8341	620
21.8415	670
21.8489	727
21.8563	750
21.8637	897
21.8711	939
21.8785	1144
21.8859	1360
21.8932	1677
21.9006	2027
21.9080	2652
21.9154	3292
21.9228	3916
21.9302	4674
21.9376	5512
21.9450	6090
21.9524	6482
21.9598	6748
21.9672	6908
21.9746	6953
21.9820	6902
21.9894	6915
21.9968	6896
22.0042	6490
22.0116	6172
22.0190	5483
22.0264	4885
22.0338	4304
22.0412	3860
22.0485	3346
22.0559	2827
22.0633	2516
22.0707	2003
22.0781	1601
22.0855	1440
22.0929	1089
22.1003	960
22.1077	811
22.1151	641
22.1225	565
22.1299	510
22.1373	466
22.1447	423
22.1521	370
22.1595	352
22.1669	304
22.1743	297
22.1817	342
22.1891	338
22.1965	311
22.2039	263
22.2112	263
22.2186	245
22.2260	249
22.2334	259
22.2408	257
22.2482	226
22.2556	240
22.2630	241
22.2704	254
22.2778	232
22.2852	244
22.2926	207
22.3000	252
22.3074	257
22.3148	221
22.3222	232
22.3296	203
22.3370	201
22.3444	212
22.3518	216
22.3592	193
22.3665	216
22.3739	204
22.3813	197
22.3887	198
22.3961	182
22.4035	174
22.4109	192
22.4183	180
22.4257	179
22.4331	188
22.4405	173
22.4479	149
22.4553	203
22.4627	185
22.4701	193
22.4775	197
22.4849	215
22.4923	171
22.4997	178
22.5071	160
22.5145	176
22.5218	192
22.5292	188
22.5366	201
22.5440	169
22.5514	156
22.5588	172
22.5662	159
22.5736	175
22.5810	177
22.5884	169
22.5958	190
22.6032	197
22.6106	199
22.6180	153
22.6254	210
22.6328	193
22.6402	184
22.6476	205
22.6550	212
22.6624	227
22.6698	224
22.6771	255
22.6845	267
22.6919	297
22.6993	350
22.7067	428
22.7141	497
22.7215	573
22.7289	744
22.7363	811
22.7437	852
22.7511	904
22.7585	961
22.7659	965
22.7733	1018
22.7807	921
22.7881	880
22.7955	895
22.8029	812
22.8103	730
22.8177	759
22.8251	607
22.8324	556
22.8398	492
22.8472	457
22.8546	410
22.8620	348
22.8694	305
22.8768	252
22.8842	257
22.8916	220
22.8990	222
22.9064	218
22.9138	196
22.9212	190
22.9286	182
22.9360	179
22.9434	172
22.9508	175
22.9582	175
22.9656	170
22.9730	168
22.9804	181
22.9877	162
22.9951	180
23.0025	183
23.0099	158
23.0173	152
23.0247	151
23.0321	164
23.0395	167
23.0469	180
23.0543	167
23.0617	154
23.0691	153
23.0765	166
23.0839	149
23.0913	131
23.0987	163
23.1061	159
23.1135	182
23.1209	161
23.1283	152
23.1357	152
23.1430	156
23.1504	150
23.1578	167
23.1652	172
23.1726	147
23.1800	160
23.1874	179
23.1948	152
23.2022	166
23.2096	162
23.2170	124
23.2244	183
23.2318	152
23.2392	173
23.2466	133
23.2540	144
23.2614	164
23.2688	162
23.2762	180
23.2836	174
23.2910	147
23.2983	144
23.3057	127
23.3131	149
23.3205	169
23.3279	159
23.3353	200
23.3427	158
23.3501	150
23.3575	177
23.3649	184
23.3723	160
23.3797	187
23.3871	177
23.3945	215
23.4019	204
23.4093	220
23.4167	230
23.4241	258
23.4315	306
23.4389	395
23.4463	379
23.4536	393
23.4610	406
23.4684	441
23.4758	431
23.4832	461
23.4906	442
23.4980	522
23.5054	478
23.5128	529
23.5202	491
23.5276	496
23.5350	428
23.5424	383
23.5498	397
23.5572	370
23.5646	380
23.5720	324
23.5794	317
23.5868	258
23.5942	234
23.6016	252
23.6089	231
23.6163	237
23.6237	213
23.6311	208
23.6385	193
23.6459	178
23.6533	161
23.6607	200
23.6681	185
23.6755	165
23.6829	165
23.6903	179
23.6977	162
23.7051	204
23.7125	176
23.7199	180
23.7273	170
23.7347	158
23.7421	172
23.7495	161
23.7569	171
23.7643	157
23.7716	198
23.7790	168
23.7864	165
23.7938	175
23.8012	177
23.8086	187
23.8160	196
23.8234	198
23.8308	193
23.8382	194
23.8456	199
23.8530	212
23.8604	219
23.8678	233
23.8752	239
23.8826	261
23.8900	314
23.8974	340
23.9048	362
23.9122	457
23.9196	523
23.9269	542
23.9343	663
23.9417	776
23.9491	902
23.9565	968
23.9639	1171
23.9713	1233
23.9787	1347
23.9861	1419
23.9935	1387
24.0009	1488
24.0083	1397
24.0157	1401
24.0231	1436
24.0305	1422
24.0379	1354
24.0453	1192
24.0527	1177
24.0601	1116
24.0675	1015
24.0749	971
24.0822	882
24.0896	803
24.0970	683
24.1044	601
24.1118	548
24.1192	479
24.1266	479
24.1340	415
24.1414	410
24.1488	356
24.1562	326
24.1636	290
24.1710	297
24.1784	277
24.1858	262
24.1932	265
24.2006	240
24.2080	279
24.2154	256
24.2228	259
24.2302	245
24.2375	243
24.2449	290
24.2523	311
24.2597	298
24.2671	356
24.2745	343
24.2819	368
24.2893	387
24.2967	411
24.3041	405
24.3115	464
24.3189	494
24.3263	537
24.3337	563
24.3411	598
24.3485	722
24.3559	812
24.3633	864
24.3707	971
24.3781	1039
24.3855	1105
24.3928	1103
24.4002	1179
24.4076	1073
24.4150	1135
24.4224	1116
24.4298	1048
24.4372	982
24.4446	912
24.4520	852
24.4594	758
24.4668	697
24.4742	617
24.4816	607
24.4890	549
24.4964	472
24.5038	435
24.5112	388
24.5186	338
24.5260	300
24.5334	279
24.5408	237
24.5481	261
24.5555	229
24.5629	233
24.5703	241
24.5777	201
24.5851	233
24.5925	234
24.5999	222
24.6073	254
24.6147	210
24.6221	225
24.6295	240
24.6369	221
24.6443	212
24.6517	250
24.6591	224
24.6665	272
24.6739	273
24.6813	226
24.6887	262
24.6961	260
24.7034	264
24.7108	285
24.7182	305
24.7256	352
24.7330	367
24.7404	361
24.7478	439
24.7552	414
24.7626	433
24.7700	503
24.7774	472
24.7848	503
24.7922	551
24.7996	529
24.8070	528
24.8144	505
24.8218	500
24.8292	502
24.8366	458
24.8440	462
24.8514	453
24.8587	450
24.8661	420
24.8735	399
24.8809	401
24.8883	378
24.8957	353
24.9031	335
24.9105	358
24.9179	342
24.9253	358
24.9327	340
24.9401	361
24.9475	419
24.9549	413
24.9623	454
24.9697	473
24.9771	517
24.9845	523
24.9919	564
24.9993	562
25.0067	555
25.0140	562
25.0214	588
25.0288	559
25.0362	555
25.0436	577
25.0510	516
25.0584	518
25.0658	526
25.0732	446
25.0806	503
25.0880	417
25.0954	382
25.1028	393
25.1102	385
25.1176	310
25.1250	274
25.1324	260
25.1398	275
25.1472	254
25.1546	235
25.1620	229
25.1693	226
25.1767	225
25.1841	219
25.1915	207
25.1989	189
25.2063	194
25.2137	204
25.2211	178
25.2285	166
25.2359	178
25.2433	174
25.2507	201
25.2581	166
25.2655	173
25.2729	205
25.2803	197
25.2877	191
25.2951	196
25.3025	206
25.3099	213
25.3173	190
25.3247	210
25.3320	209
25.3394	220
25.3468	184
25.3542	227
25.3616	228
25.3690	257
25.3764	246
25.3838	276
25.3912	337
25.3986	324
25.4060	403
25.4134	465
25.4208	540
25.4282	661
25.4356	747
25.4430	887
25.4504	975
25.4578	1074
25.4652	1217
25.4726	1209
25.4800	1310
25.4873	1386
25.4947	1337
25.5021	1364
25.5095	1340
25.5169	1388
25.5243	1360
25.5317	1294
25.5391	1155
25.5465	1155
25.5539	1199
25.5613	1038
25.5687	1013
25.5761	1036
25.5835	1095
25.5909	948
25.5983	1052
25.6057	1032
25.6131	938
25.6205	947
25.6279	871
25.6353	908
25.6426	924
25.6500	834
25.6574	862
25.6648	839
25.6722	851
25.6796	805
25.6870	680
25.6944	661
25.7018	591
25.7092	570
25.7166	492
25.7240	464
25.7314	473
25.7388	424
25.7462	406
25.7536	374
25.7610	415
25.7684	363
25.7758	335
25.7832	371
25.7906	371
25.7979	393
25.8053	422
25.8127	468
25.8201	466
25.8275	526
25.8349	619
25.8423	526
25.8497	590
25.8571	605
25.8645	660
25.8719	639
25.8793	631
25.8867	547
25.8941	620
25.9015	485
25.9089	494
25.9163	478
25.9237	439
25.9311	432
25.9385	421
25.9459	381
25.9532	332
25.9606	350
25.9680	296
25.9754	302
25.9828	250
25.9902	241
25.9976	236
26.0050	224
26.0124	211
26.0198	209
26.0272	199
26.0346	186
26.0420	205
26.0494	205
26.0568	203
26.0642	207
26.0716	203
26.0790	200
26.0864	176
26.0938	194
26.1012	189
26.1085	202
26.1159	168
26.1233	187
26.1307	210
26.1381	189
26.1455	193
26.1529	219
26.1603	190
26.1677	197
26.1751	183
26.1825	182
26.1899	192
26.1973	191
26.2047	195
26.2121	203
26.2195	207
26.2269	200
26.2343	184
26.2417	197
26.2491	221
26.2565	192
26.2638	222
26.2712	228
26.2786	217
26.2860	197
26.2934	208
26.3008	216
26.3082	229
26.3156	230
26.3230	243
26.3304	231
26.3378	274
26.3452	255
26.3526	269
26.3600	307
26.3674	275
26.3748	300
26.3822	348
26.3896	422
26.3970	423
26.4044	484
26.4118	531
26.4191	571
26.4265	727
26.4339	784
26.4413	879
26.4487	1039
26.4561	1184
26.4635	1410
26.4709	1754
26.4783	2014
26.4857	2284
26.4931	2606
26.5005	2845
26.5079	3010
26.5153	3168
26.5227	3230
26.5301	3343
26.5375	3256
26.5449	3266
26.5523	3224
26.5597	3178
26.5671	3042
26.5744	2911
26.5818	2767
26.5892	2532
26.5966	2332
26.6040	2214
26.6114	1904
26.6188	1763
26.6262	1602
26.6336	1378
26.6410	1251
26.6484	1026
26.6558	896
26.6632	840
26.6706	717
26.6780	682
26.6854	559
26.6928	483
26.7002	488
26.7076	426
26.7150	411
26.7224	341
26.7297	317
26.7371	329
26.7445	296
26.7519	291
26.7593	280
26.7667	279
26.7741	244
26.7815	276
26.7889	253
26.7963	231
26.8037	218
26.8111	216
26.8185	233
26.8259	207
26.8333	216
26.8407	227
26.8481	199
26.8555	210
26.8629	203
26.8703	223
26.8777	196
26.8850	221
26.8924	213
26.8998	193
26.9072	214
26.9146	215
26.9220	190
26.9294	173
26.9368	208
26.9442	181
26.9516	186
26.9590	212
26.9664	190
26.9738	175
26.9812	199
26.9886	207
26.9960	195
27.0034	176
27.0108	177
27.0182	190
27.0256	191
27.0330	183
27.0404	190
27.0477	180
27.0551	190
27.0625	188
27.0699	178
27.0773	182
27.0847	184
27.0921	163
27.0995	196
27.1069	177
27.1143	189
27.1217	189
27.1291	184
27.1365	187
27.1439	195
27.1513	174
27.1587	188
27.1661	204
27.1735	180
27.1809	208
27.1883	185
27.1957	189
27.2030	188
27.2104	191
27.2178	195
27.2252	195
27.2326	203
27.2400	214
27.2474	214
27.2548	187
27.2622	223
27.2696	231
27.2770	224
27.2844	249
27.2918	263
27.2992	231
27.3066	229
27.3140	222
27.3214	268
27.3288	272
27.3362	268
27.3436	300
27.3510	331
27.3583	332
27.3657	322
27.3731	412
27.3805	422
27.3879	445
27.3953	527
27.4027	569
27.4101	699
27.4175	787
27.4249	868
27.4323	1066
27.4397	1164
27.4471	1232
27.4545	1369
27.4619	1294
27.4693	1369
27.4767	1370
27.4841	1365
27.4915	1371
27.4989	1278
27.5063	1340
27.5136	1258
27.5210	1143
27.5284	1088
27.5358	1065
27.5432	930
27.5506	902
27.5580	803
27.5654	690
27.5728	658
27.5802	565
27.5876	534
27.5950	527
27.6024	480
27.6098	443
27.6172	372
27.6246	398
27.6320	343
27.6394	331
27.6468	344
27.6542	363
27.6616	286
27.6689	317
27.6763	315
27.6837	316
27.6911	288
27.6985	310
27.7059	296
27.7133	270
27.7207	289
27.7281	278
27.7355	306
27.7429	263
27.7503	288
27.7577	294
27.7651	250
27.7725	286
27.7799	301
27.7873	277
27.7947	307
27.8021	286
27.8095	341
27.8169	299
27.8242	301
27.8316	361
27.8390	308
27.8464	353
27.8538	328
27.8612	318
27.8686	329
27.8760	292
27.8834	303
27.8908	297
27.8982	339
27.9056	279
27.9130	258
27.9204	275
27.9278	262
27.9352	269
27.9426	210
27.9500	284
27.9574	253
27.9648	214
27.9722	232
27.9795	250
27.9869	242
27.9943	256
28.0017	248
28.0091	263
28.0165	250
28.0239	239
28.0313	236
28.0387	193
28.0461	240
28.0535	234
28.0609	229
28.0683	240
28.0757	259
28.0831	243
28.0905	237
28.0979	225
28.1053	223
28.1127	189
28.1201	241
28.1275	205
28.1348	233
28.1422	183
28.1496	226
28.1570	208
28.1644	206
28.1718	184
28.1792	200
28.1866	205
28.1940	209
28.2014	226
28.2088	226
28.2162	224
28.2236	236
28.2310	217
28.2384	250
28.2458	228
28.2532	220
28.2606	232
28.2680	213
28.2754	222
28.2828	213
28.2901	219
28.2975	241
28.3049	272
28.3123	232
28.3197	222
28.3271	227
28.3345	279
28.3419	263
28.3493	288
28.3567	320
28.3641	347
28.3715	370
28.3789	424
28.3863	477
28.3937	545
28.4011	688
28.4085	732
28.4159	858
28.4233	970
28.4307	1057
28.4381	1055
28.4454	1085
28.4528	1159
28.4602	1110
28.4676	1129
28.4750	1138
28.4824	1059
28.4898	988
28.4972	974
28.5046	918
28.5120	862
28.5194	812
28.5268	803
28.5342	677
28.5416	681
28.5490	587
28.5564	518
28.5638	501
28.5712	447
28.5786	360
28.5860	296
28.5934	314
28.6008	299
28.6081	235
28.6155	235
28.6229	236
28.6303	242
28.6377	205
28.6451	222
28.6525	207
28.6599	186
28.6673	202
28.6747	197
28.6821	160
28.6895	178
28.6969	166
28.7043	179
28.7117	165
28.7191	167
28.7265	169
28.7339	170
28.7413	156
28.7487	157
28.7561	135
28.7634	156
28.7708	179
28.7782	160
28.7856	184
28.7930	146
28.8004	169
28.8078	157
28.8152	178
28.8226	195
28.8300	161
28.8374	182
28.8448	190
28.8522	205
28.8596	193
28.8670	219
28.8744	212
28.8818	222
28.8892	232
28.8966	236
28.9040	240
28.9114	221
28.9187	280
28.9261	275
28.9335	289
28.9409	322
28.9483	329
28.9557	373
28.9631	383
28.9705	444
28.9779	471
28.9853	516
28.9927	518
29.0001	591
29.0075	597
29.0149	649
29.0223	654
29.0297	679
29.0371	674
29.0445	639
29.0519	638
29.0593	583
29.0667	570
29.0740	532
29.0814	528
29.0888	457
29.0962	439
29.1036	391
29.1110	462
29.1184	382
29.1258	343
29.1332	305
29.1406	300
29.1480	266
29.1554	238
29.1628	218
29.1702	195
29.1776	173
29.1850	168
29.1924	189
29.1998	167
29.2072	160
29.2146	186
29.2220	152
29.2293	165
29.2367	161
29.2441	150
29.2515	144
29.2589	145
29.2663	133
29.2737	136
29.2811	157
29.2885	162
29.2959	137
29.3033	140
29.3107	164
29.3181	138
29.3255	160
29.3329	143
29.3403	156
29.3477	142
29.3551	147
29.3625	138
29.3699	157
29.3773	157
29.3846	160
29.3920	158
29.3994	153
29.4068	169
29.4142	165
29.4216	173
29.4290	161
29.4364	162
29.4438	166
29.4512	162
29.4586	160
29.4660	165
29.4734	155
29.4808	165
29.4882	169
29.4956	169
29.5030	174
29.5104	163
29.5178	161
29.5252	153
29.5326	155
29.5399	188
29.5473	141
29.5547	160
29.5621	176
29.5695	167
29.5769	182
29.5843	140
29.5917	181
29.5991	153
29.6065	153
29.6139	155
29.6213	188
29.6287	171
29.6361	154
29.6435	175
29.6509	154
29.6583	159
29.6657	166
29.6731	145
29.6805	161
29.6879	138
29.6952	163
29.7026	148
29.7100	156
29.7174	156
29.7248	170
29.7322	152
29.7396	171
29.7470	164
29.7544	147
29.7618	166
29.7692	162
29.7766	178
29.7840	172
29.7914	170
29.7988	160
29.8062	176
29.8136	153
29.8210	153
29.8284	140
29.8358	133
29.8432	179
29.8505	153
29.8579	139
29.8653	138
29.8727	137
29.8801	156
29.8875	135
29.8949	140
29.9023	142
29.9097	140
29.9171	128
29.9245	137
29.9319	121
29.9393	148
29.9467	138
29.9541	121
29.9615	112
29.9689	138
29.9763	137
29.9837	151
29.9911	127
29.9985	152
30.0058	148
30.0132	156
30.0206	158
30.0280	150
30.0354	168
30.0428	169
30.0502	173
30.0576	187
30.0650	191
30.0724	156
30.0798	150
30.0872	170
30.0946	164
30.1020	159
30.1094	163
30.1168	179
30.1242	159
30.1316	157
30.1390	158
30.1464	185
30.1538	181
30.1612	162
30.1685	180
30.1759	174
30.1833	181
30.1907	162
30.1981	166
30.2055	172
30.2129	182
30.2203	167
30.2277	152
30.2351	153
30.2425	160
30.2499	148
30.2573	184
30.2647	160
30.2721	172
30.2795	163
30.2869	142
30.2943	170
30.3017	177
30.3091	149
30.3165	168
30.3238	162
30.3312	173
30.3386	160
30.3460	190
30.3534	181
30.3608	162
30.3682	151
30.3756	167
30.3830	152
30.3904	185
30.3978	192
30.4052	193
30.4126	196
30.4200	206
30.4274	162
30.4348	193
30.4422	185
30.4496	189
30.4570	203
30.4644	222
30.4718	206
30.4791	219
30.4865	240
30.4939	273
30.5013	241
30.5087	224
30.5161	225
30.5235	258
30.5309	230
30.5383	213
30.5457	249
30.5531	255
30.5605	215
30.5679	201
30.5753	243
30.5827	211
30.5901	228
30.5975	255
30.6049	236
30.6123	230
30.6197	217
30.6271	226
30.6344	234
30.6418	271
30.6492	238
30.6566	220
30.6640	200
30.6714	238
30.6788	224
30.6862	226
30.6936	237
30.7010	200
30.7084	188
30.7158	185
30.7232	164
30.7306	159
30.7380	173
30.7454	182
30.7528	181
30.7602	160
30.7676	146
30.7750	140
30.7824	131
30.7897	166
30.7971	159
30.8045	138
30.8119	141
30.8193	141
30.8267	123
30.8341	126
30.8415	118
30.8489	131
30.8563	136
30.8637	124
30.8711	137
30.8785	128
30.8859	145
30.8933	120
30.9007	149
30.9081	136
30.9155	144
30.9229	122
30.9303	131
30.9377	142
30.9450	163
30.9524	124
30.9598	138
30.9672	141
30.9746	127
30.9820	130
30.9894	137
30.9968	136
31.0042	131
31.0116	126
31.0190	139
31.0264	128
31.0338	118
31.0412	134
31.0486	127
31.0560	124
31.0634	115
31.0708	112
31.0782	126
31.0856	132
31.0930	119
31.1003	108
31.1077	120
31.1151	132
31.1225	122
31.1299	143
31.1373	119
31.1447	116
31.1521	127
31.1595	128
31.1669	130
31.1743	135
31.1817	115
31.1891	105
31.1965	113
31.2039	138
31.2113	116
31.2187	114
31.2261	140
31.2335	135
31.2409	150
31.2483	137
31.2556	143
31.2630	134
31.2704	149
31.2778	145
31.2852	155
31.2926	139
31.3000	141
31.3074	148
31.3148	156
31.3222	139
31.3296	161
31.3370	169
31.3444	202
31.3518	220
31.3592	223
31.3666	242
31.3740	299
31.3814	265
31.3888	300
31.3962	307
31.4036	337
31.4109	356
31.4183	367
31.4257	383
31.4331	361
31.4405	357
31.4479	411
31.4553	394
31.4627	403
31.4701	362
31.4775	361
31.4849	348
31.4923	365
31.4997	344
31.5071	301
31.5145	283
31.5219	334
31.5293	272
31.5367	290
31.5441	282
31.5515	286
31.5589	305
31.5662	259
31.5736	296
31.5810	263
31.5884	276
31.5958	281
31.6032	272
31.6106	247
31.6180	221
31.6254	247
31.6328	218
31.6402	237
31.6476	213
31.6550	217
31.6624	215
31.6698	198
31.6772	197
31.6846	193
31.6920	198
31.6994	182
31.7068	185
31.7142	154
31.7215	163
31.7289	153
31.7363	149
31.7437	142
31.7511	166
31.7585	132
31.7659	138
31.7733	131
31.7807	140
31.7881	123
31.7955	162
31.8029	164
31.8103	126
31.8177	139
31.8251	155
31.8325	133
31.8399	184
31.8473	144
31.8547	151
31.8621	157
31.8695	164
31.8769	183
31.8842	173
31.8916	202
31.8990	189
31.9064	190
31.9138	206
31.9212	198
31.9286	176
31.9360	203
31.9434	208
31.9508	209
31.9582	222
31.9656	218
31.9730	194
31.9804	201
31.9878	218
31.9952	205
32.0026	211
32.0100	224
32.0174	190
32.0248	182
32.0322	160
32.0395	191
32.0469	159
32.0543	143
32.0617	148
32.0691	144
32.0765	183
32.0839	158
32.0913	150
32.0987	141
32.1061	142
32.1135	130
32.1209	159
32.1283	152
32.1357	106
32.1431	117
32.1505	115
32.1579	126
32.1653	135
32.1727	136
32.1801	136
32.1875	117
32.1948	127
32.2022	108
32.2096	126
32.2170	117
32.2244	134
32.2318	113
32.2392	102
32.2466	102
32.2540	102
32.2614	122
32.2688	115
32.2762	117
32.2836	120
32.2910	106
32.2984	97
32.3058	103
32.3132	112
32.3206	116
32.3280	126
32.3354	96
32.3428	116
32.3501	93
32.3575	115
32.3649	100
32.3723	120
32.3797	121
32.3871	126
32.3945	115
32.4019	113
32.4093	102
32.4167	98
32.4241	122
32.4315	110
32.4389	122
32.4463	103
32.4537	107
32.4611	121
32.4685	122
32.4759	125
32.4833	123
32.4907	99
32.4981	96
32.5054	130
32.5128	114
32.5202	107
32.5276	110
32.5350	108
32.5424	110
32.5498	124
32.5572	100
32.5646	114
32.5720	122
32.5794	140
32.5868	121
32.5942	104
32.6016	121
32.6090	126
32.6164	126
32.6238	128
32.6312	135
32.6386	107
32.6460	96
32.6534	119
32.6607	121
32.6681	115
32.6755	126
32.6829	126
32.6903	110
32.6977	111
32.7051	114
32.7125	110
32.7199	131
32.7273	104
32.7347	130
32.7421	99
32.7495	113
32.7569	131
32.7643	116
32.7717	108
32.7791	134
32.7865	121
32.7939	99
32.8013	115
32.8087	111
32.8160	113
32.8234	119
32.8308	127
32.8382	138
32.8456	142
32.8530	140
32.8604	141
32.8678	149
32.8752	167
32.8826	140
32.8900	157
32.8974	155
32.9048	160
32.9122	158
32.9196	163
32.9270	142
32.9344	157
32.9418	146
32.9492	134
32.9566	137
32.9640	136
32.9713	120
32.9787	124
32.9861	120
32.9935	128
33.0009	146
33.0083	113
33.0157	134
33.0231	115
33.0305	113
33.0379	122
33.0453	149
33.0527	123
33.0601	127
33.0675	113
33.0749	115
33.0823	125
33.0897	119
33.0971	99
33.1045	120
33.1119	119
33.1193	113
33.1266	109
33.1340	105
33.1414	120
33.1488	114
33.1562	124
33.1636	136
33.1710	124
33.1784	126
33.1858	122
33.1932	108
33.2006	130
33.2080	140
33.2154	132
33.2228	125
33.2302	129
33.2376	140
33.2450	118
33.2524	139
33.2598	118
33.2672	141
33.2746	142
33.2819	139
33.2893	157
33.2967	202
33.3041	152
33.3115	146
33.3189	165
33.3263	161
33.3337	165
33.3411	148
33.3485	156
33.3559	160
33.3633	160
33.3707	146
33.3781	180
33.3855	157
33.3929	184
33.4003	145
33.4077	191
33.4151	183
33.4225	200
33.4299	223
33.4373	200
33.4446	219
33.4520	231
33.4594	233
33.4668	292
33.4742	250
33.4816	300
33.4890	333
33.4964	413
33.5038	427
33.5112	423
33.5186	462
33.5260	488
33.5334	503
33.5408	503
33.5482	486
33.5556	474
33.5630	545
33.5704	528
33.5778	554
33.5852	532
33.5926	557
33.5999	601
33.6073	591
33.6147	586
33.6221	502
33.6295	505
33.6369	436
33.6443	421
33.6517	416
33.6591	435
33.6665	392
33.6739	357
33.6813	337
33.6887	331
33.6961	318
33.7035	288
33.7109	277
33.7183	276
33.7257	237
33.7331	237
33.7405	207
33.7479	198
33.7552	177
33.7626	167
33.7700	166
33.7774	136
33.7848	165
33.7922	139
33.7996	161
33.8070	133
33.8144	127
33.8218	133
33.8292	137
33.8366	138
33.8440	142
33.8514	143
33.8588	123
33.8662	132
33.8736	146
33.8810	150
33.8884	132
33.8958	139
33.9032	168
33.9105	169
33.9179	160
33.9253	158
33.9327	176
33.9401	180
33.9475	164
33.9549	155
33.9623	183
33.9697	199
33.9771	163
33.9845	203
33.9919	185
33.9993	189
34.0067	188
34.0141	192
34.0215	213
34.0289	177
34.0363	202
34.0437	198
34.0511	208
34.0585	198
34.0658	230
34.0732	201
34.0806	237
34.0880	228
34.0954	216
34.1028	224
34.1102	202
34.1176	167
34.1250	203
34.1324	184
34.1398	191
34.1472	186
34.1546	172
34.1620	160
34.1694	189
34.1768	177
34.1842	174
34.1916	168
34.1990	157
34.2064	136
34.2138	166
34.2211	150
34.2285	145
34.2359	149
34.2433	117
34.2507	118
34.2581	128
34.2655	112
34.2729	117
34.2803	114
34.2877	129
34.2951	107
34.3025	130
34.3099	126
34.3173	92
34.3247	102
34.3321	105
34.3395	91
34.3469	106
34.3543	108
34.3617	111
34.3691	129
34.3764	108
34.3838	106
34.3912	112
34.3986	112
34.4060	105
34.4134	108
34.4208	111
34.4282	114
34.4356	123
34.4430	122
34.4504	130
34.4578	109
34.4652	103
34.4726	107
34.4800	121
34.4874	126
34.4948	123
34.5022	127
34.5096	111
34.5170	111
34.5244	129
34.5317	120
34.5391	112
34.5465	130
34.5539	105
34.5613	114
34.5687	105
34.5761	112
34.5835	123
34.5909	108
34.5983	105
34.6057	115
34.6131	138
34.6205	114
34.6279	109
34.6353	107
34.6427	116
34.6501	101
34.6575	119
34.6649	130
34.6723	116
34.6797	121
34.6870	112
34.6944	119
34.7018	118
34.7092	133
34.7166	100
34.7240	127
34.7314	112
34.7388	109
34.7462	100
34.7536	107
34.7610	128
34.7684	112
34.7758	107
34.7832	111
34.7906	103
34.7980	109
34.8054	104
34.8128	128
34.8202	118
34.8276	124
34.8350	112
34.8423	115
34.8497	108
34.8571	125
34.8645	121
34.8719	125
34.8793	117
34.8867	101
34.8941	117
34.9015	125
34.9089	92
34.9163	111
34.9237	124
34.9311	132
34.9385	125
34.9459	120
34.9533	125
34.9607	128
34.9681	107
34.9755	131
34.9829	162
34.9903	136
34.9977	167
35.0050	150
35.0124	138
35.0198	139
35.0272	138
35.0346	134
35.0420	159
35.0494	170
35.0568	156
35.0642	142
35.0716	142
35.0790	139
35.0864	140
35.0938	138
35.1012	145
35.1086	150
35.1160	160
35.1234	160
35.1308	161
35.1382	168
35.1456	173
35.1530	196
35.1603	169
35.1677	210
35.1751	199
35.1825	224
35.1899	192
35.1973	175
35.2047	169
35.2121	188
35.2195	183
35.2269	189
35.2343	189
35.2417	185
35.2491	194
35.2565	169
35.2639	175
35.2713	156
35.2787	169
35.2861	154
35.2935	166
35.3009	157
35.3083	155
35.3156	140
35.3230	133
35.3304	119
35.3378	129
35.3452	144
35.3526	133
35.3600	146
35.3674	113
35.3748	109
35.3822	138
35.3896	141
35.3970	127
35.4044	110
35.4118	124
35.4192	127
35.4266	116
35.4340	136
35.4414	132
35.4488	143
35.4562	131
35.4636	140
35.4709	137
35.4783	164
35.4857	168
35.4931	173
35.5005	171
35.5079	143
35.5153	177
35.5227	183
35.5301	162
35.5375	195
35.5449	185
35.5523	172
35.5597	152
35.5671	186
35.5745	164
35.5819	158
35.5893	174
35.5967	150
35.6041	160
35.6115	151
35.6189	135
35.6262	158
35.6336	157
35.6410	123
35.6484	138
35.6558	127
35.6632	138
35.6706	136
35.6780	140
35.6854	135
35.6928	132
35.7002	130
35.7076	144
35.7150	131
35.7224	127
35.7298	120
35.7372	126
35.7446	149
35.7520	124
35.7594	124
35.7668	120
35.7742	155
35.7815	148
35.7889	117
35.7963	140
35.8037	131
35.8111	137
35.8185	161
35.8259	160
35.8333	123
35.8407	162
35.8481	146
35.8555	151
35.8629	136
35.8703	144
35.8777	157
35.8851	156
35.8925	166
35.8999	162
35.9073	160
35.9147	179
35.9221	169
35.9295	184
35.9368	169
35.9442	171
35.9516	172
35.9590	198
35.9664	190
35.9738	176
35.9812	191
35.9886	199
35.9960	229
36.0034	225
36.0108	259
36.0182	309
36.0256	309
36.0330	341
36.0404	381
36.0478	370
36.0552	386
36.0626	402
36.0700	393
36.0774	406
36.0848	428
36.0921	407
36.0995	409
36.1069	386
36.1143	393
36.1217	363
36.1291	393
36.1365	390
36.1439	403
36.1513	441
36.1587	384
36.1661	378
36.1735	424
36.1809	375
36.1883	394
36.1957	383
36.2031	382
36.2105	347
36.2179	325
36.2253	312
36.2327	306
36.2401	293
36.2474	281
36.2548	245
36.2622	255
36.2696	245
36.2770	257
36.2844	268
36.2918	255
36.2992	247
36.3066	288
36.3140	273
36.3214	295
36.3288	298
36.3362	275
36.3436	280
36.3510	257
36.3584	277
36.3658	285
36.3732	268
36.3806	228
36.3880	272
36.3954	244
36.4027	246
36.4101	242
36.4175	240
36.4249	241
36.4323	206
36.4397	203
36.4471	232
36.4545	204
36.4619	187
36.4693	214
36.4767	191
36.4841	169
36.4915	174
36.4989	170
36.5063	152
36.5137	164
36.5211	165
36.5285	158
36.5359	152
36.5433	135
36.5507	151
36.5580	118
36.5654	135
36.5728	117
36.5802	121
36.5876	133
36.5950	120
36.6024	135
36.6098	107
36.6172	112
36.6246	139
36.6320	132
36.6394	134
36.6468	114
36.6542	119
36.6616	128
36.6690	121
36.6764	122
36.6838	119
36.6912	126
36.6986	121
36.7060	111
36.7134	110
36.7207	122
36.7281	121
36.7355	106
36.7429	118
36.7503	110
36.7577	125
36.7651	103
36.7725	129
36.7799	126
36.7873	105
36.7947	112
36.8021	103
36.8095	112
36.8169	119
36.8243	101
36.8317	107
36.8391	122
36.8465	118
36.8539	117
36.8613	101
36.8687	98
36.8760	121
36.8834	97
36.8908	92
36.8982	122
36.9056	105
36.9130	122
36.9204	107
36.9278	115
36.9352	113
36.9426	120
36.9500	126
36.9574	122
36.9648	117
36.9722	111
36.9796	107
36.9870	110
36.9944	118
37.0018	105
37.0092	120
37.0166	127
37.0240	108
37.0313	129
37.0387	115
37.0461	118
37.0535	104
37.0609	120
37.0683	134
37.0757	129
37.0831	134
37.0905	106
37.0979	117
37.1053	148
37.1127	149
37.1201	159
37.1275	143
37.1349	161
37.1423	145
37.1497	164
37.1571	173
37.1645	159
37.1719	169
37.1793	160
37.1866	156
37.1940	171
37.2014	144
37.2088	151
37.2162	146
37.2236	150
37.2310	137
37.2384	152
37.2458	139
37.2532	141
37.2606	161
37.2680	129
37.2754	140
37.2828	136
37.2902	145
37.2976	127
37.3050	116
37.3124	127
37.3198	128
37.3272	129
37.3346	127
37.3419	116
37.3493	108
37.3567	112
37.3641	98
37.3715	110
37.3789	112
37.3863	108
37.3937	113
37.4011	119
37.4085	121
37.4159	136
37.4233	130
37.4307	116
37.4381	114
37.4455	117
37.4529	115
37.4603	105
37.4677	115
37.4751	110
37.4825	126
37.4899	113
37.4972	108
37.5046	128
37.5120	138
37.5194	143
37.5268	109
37.5342	153
37.5416	138
37.5490	151
37.5564	157
37.5638	147
37.5712	156
37.5786	168
37.5860	170
37.5934	190
37.6008	172
37.6082	196
37.6156	223
37.6230	234
37.6304	234
37.6378	222
37.6452	231
37.6525	224
37.6599	234
37.6673	266
37.6747	272
37.6821	255
37.6895	270
37.6969	296
37.7043	305
37.7117	263
37.7191	317
37.7265	293
37.7339	261
37.7413	271
37.7487	292
37.7561	276
37.7635	243
37.7709	253
37.7783	277
37.7857	222
37.7931	205
37.8005	213
37.8078	192
37.8152	196
37.8226	196
37.8300	180
37.8374	193
37.8448	196
37.8522	178
37.8596	193
37.8670	150
37.8744	154
37.8818	163
37.8892	136
37.8966	124
37.9040	127
37.9114	130
37.9188	137
37.9262	141
37.9336	100
37.9410	142
37.9484	123
37.9558	142
37.9631	135
37.9705	120
37.9779	131
37.9853	120
37.9927	143
38.0001	117
38.0075	142
38.0149	106
38.0223	110
38.0297	111
38.0371	137
38.0445	130
38.0519	117
38.0593	128
38.0667	117
38.0741	122
38.0815	111
38.0889	144
38.0963	143
38.1037	127
38.1111	128
38.1184	133
38.1258	112
38.1332	118
38.1406	115
38.1480	134
38.1554	132
38.1628	133
38.1702	124
38.1776	117
38.1850	115
38.1924	132
38.1998	127
38.2072	135
38.2146	123
38.2220	128
38.2294	146
38.2368	154
38.2442	141
38.2516	155
38.2590	177
38.2664	182
38.2738	197
38.2811	175
38.2885	189
38.2959	184
38.3033	191
38.3107	224
38.3181	189
38.3255	204
38.3329	195
38.3403	181
38.3477	202
38.3551	219
38.3625	194
38.3699	192
38.3773	169
38.3847	199
38.3921	185
38.3995	182
38.4069	206
38.4143	198
38.4217	190
38.4291	192
38.4364	210
38.4438	204
38.4512	180
38.4586	200
38.4660	191
38.4734	238
38.4808	223
38.4882	215
38.4956	209
38.5030	230
38.5104	205
38.5178	229
38.5252	212
38.5326	205
38.5400	198
38.5474	208
38.5548	183
38.5622	189
38.5696	166
38.5770	216
38.5844	167
38.5917	193
38.5991	181
38.6065	179
38.6139	185
38.6213	185
38.6287	187
38.6361	152
38.6435	159
38.6509	148
38.6583	145
38.6657	148
38.6731	115
38.6805	123
38.6879	139
38.6953	111
38.7027	121
38.7101	125
38.7175	133
38.7249	125
38.7323	125
38.7397	121
38.7470	114
38.7544	113
38.7618	140
38.7692	119
38.7766	151
38.7840	126
38.7914	127
38.7988	124
38.8062	137
38.8136	106
38.8210	117
38.8284	114
38.8358	112
38.8432	117
38.8506	104
38.8580	134
38.8654	124
38.8728	118
38.8802	120
38.8876	126
38.8950	128
38.9023	125
38.9097	109
38.9171	107
38.9245	119
38.9319	128
38.9393	121
38.9467	116
38.9541	134
38.9615	120
38.9689	130
38.9763	117
38.9837	110
38.9911	108
38.9985	120
39.0059	116
39.0133	122
39.0207	122
39.0281	116
39.0355	125
39.0429	139
39.0503	115
39.0576	134
39.0650	136
39.0724	106
39.0798	136
39.0872	138
39.0946	127
39.1020	124
39.1094	146
39.1168	139
39.1242	149
39.1316	156
39.1390	141
39.1464	130
39.1538	140
39.1612	132
39.1686	136
39.1760	147
39.1834	154
39.1908	185
39.1982	156
39.2056	176
39.2129	186
39.2203	181
39.2277	233
39.2351	236
39.2425	227
39.2499	301
39.2573	280
39.2647	316
39.2721	355
39.2795	356
39.2869	351
39.2943	349
39.3017	355
39.3091	361
39.3165	351
39.3239	351
39.3313	348
39.3387	332
39.3461	333
39.3535	353
39.3609	347
39.3682	372
39.3756	370
39.3830	343
39.3904	378
39.3978	335
39.4052	322
39.4126	321
39.4200	360
39.4274	332
39.4348	331
39.4422	342
39.4496	306
39.4570	315
39.4644	303
39.4718	345
39.4792	324
39.4866	327
39.4940	303
39.5014	288
39.5088	265
39.5162	290
39.5235	262
39.5309	274
39.5383	232
39.5457	234
39.5531	262
39.5605	250
39.5679	213
39.5753	242
39.5827	192
39.5901	186
39.5975	189
39.6049	198
39.6123	180
39.6197	196
39.6271	200
39.6345	151
39.6419	143
39.6493	148
39.6567	150
39.6641	149
39.6715	161
39.6788	154
39.6862	173
39.6936	144
39.7010	147
39.7084	145
39.7158	160
39.7232	141
39.7306	131
39.7380	149
39.7454	142
39.7528	154
39.7602	163
39.7676	158
39.7750	138
39.7824	159
39.7898	141
39.7972	152
39.8046	191
39.8120	171
39.8194	184
39.8268	159
39.8342	198
39.8415	183
39.8489	184
39.8563	160
39.8637	161
39.8711	154
39.8785	138
39.8859	168
39.8933	141
39.9007	136
39.9081	139
39.9155	138
39.9229	155
39.9303	148
39.9377	140
39.9451	179
39.9525	195
39.9599	143
39.9673	147
39.9747	141
39.9821	124
39.9895	150
39.9968	134
