2.0000	163
2.0074	149
2.0148	166
2.0222	139
2.0296	147
2.0370	172
2.0444	162
2.0518	154
2.0592	156
2.0666	137
2.0740	154
2.0813	127
2.0887	163
2.0961	173
2.1035	155
2.1109	155
2.1183	140
2.1257	165
2.1331	161
2.1405	168
2.1479	168
2.1553	153
2.1627	156
2.1701	154
2.1775	159
2.1849	146
2.1923	130
2.1997	147
2.2071	148
2.2145	166
2.2219	178
2.2293	146
2.2366	152
2.2440	160
2.2514	147
2.2588	167
2.2662	156
2.2736	148
2.2810	145
2.2884	157
2.2958	135
2.3032	124
2.3106	154
2.3180	139
2.3254	142
2.3328	172
2.3402	168
2.3476	152
2.3550	164
2.3624	144
2.3698	158
2.3772	142
2.3846	167
2.3919	150
2.3993	143
2.4067	127
2.4141	149
2.4215	167
2.4289	152
2.4363	146
2.4437	159
2.4511	155
2.4585	161
2.4659	165
2.4733	155
2.4807	171
2.4881	173
2.4955	159
2.5029	140
2.5103	151
2.5177	138
2.5251	142
2.5325	152
2.5399	129
2.5472	147
2.5546	141
2.5620	139
2.5694	148
2.5768	155
2.5842	168
2.5916	164
2.5990	136
2.6064	133
2.6138	154
2.6212	141
2.6286	132
2.6360	149
2.6434	138
2.6508	154
2.6582	148
2.6656	147
2.6730	153
2.6804	128
2.6878	136
2.6952	145
2.7025	155
2.7099	151
2.7173	131
2.7247	142
2.7321	132
2.7395	144
2.7469	131
2.7543	151
2.7617	131
2.7691	145
2.7765	148
2.7839	138
2.7913	142
2.7987	147
2.8061	149
2.8135	131
2.8209	121
2.8283	123
2.8357	153
2.8431	149
2.8505	156
2.8579	142
2.8652	145
2.8726	147
2.8800	141
2.8874	135
2.8948	158
2.9022	146
2.9096	163
2.9170	148
2.9244	151
2.9318	121
2.9392	141
2.9466	146
2.9540	138
2.9614	127
2.9688	154
2.9762	119
2.9836	153
2.9910	130
2.9984	147
3.0058	149
3.0132	134
3.0205	140
3.0279	153
3.0353	118
3.0427	119
3.0501	127
3.0575	130
3.0649	136
3.0723	126
3.0797	151
3.0871	129
3.0945	137
3.1019	144
3.1093	136
3.1167	141
3.1241	148
3.1315	126
3.1389	136
3.1463	140
3.1537	114
3.1611	160
3.1685	137
3.1758	130
3.1832	133
3.1906	147
3.1980	132
3.2054	148
3.2128	137
3.2202	142
3.2276	132
3.2350	137
3.2424	119
3.2498	135
3.2572	154
3.2646	129
3.2720	123
3.2794	107
3.2868	159
3.2942	113
3.3016	138
3.3090	124
3.3164	131
3.3238	125
3.3311	131
3.3385	149
3.3459	141
3.3533	122
3.3607	145
3.3681	134
3.3755	131
3.3829	139
3.3903	157
3.3977	132
3.4051	130
3.4125	111
3.4199	118
3.4273	128
3.4347	121
3.4421	138
3.4495	133
3.4569	123
3.4643	133
3.4717	127
3.4791	137
3.4864	147
3.4938	116
3.5012	117
3.5086	147
3.5160	123
3.5234	149
3.5308	108
3.5382	111
3.5456	143
3.5530	145
3.5604	125
3.5678	145
3.5752	135
3.5826	111
3.5900	128
3.5974	128
3.6048	131
3.6122	139
3.6196	116
3.6270	124
3.6344	138
3.6417	143
3.6491	156
3.6565	115
3.6639	126
3.6713	123
3.6787	125
3.6861	137
3.6935	129
3.7009	131
3.7083	136
3.7157	105
3.7231	142
3.7305	119
3.7379	109
3.7453	115
3.7527	107
3.7601	175
3.7675	151
3.7749	125
3.7823	126
3.7897	148
3.7970	124
3.8044	116
3.8118	110
3.8192	149
3.8266	111
3.8340	136
3.8414	131
3.8488	124
3.8562	115
3.8636	136
3.8710	103
3.8784	141
3.8858	137
3.8932	129
3.9006	129
3.9080	123
3.9154	136
3.9228	136
3.9302	103
3.9376	111
3.9450	118
3.9523	107
3.9597	123
3.9671	114
3.9745	122
3.9819	104
3.9893	122
3.9967	105
4.0041	120
4.0115	115
4.0189	114
4.0263	118
4.0337	106
4.0411	107
4.0485	125
4.0559	103
4.0633	89
4.0707	118
4.0781	111
4.0855	100
4.0929	115
4.1003	124
4.1076	103
4.1150	117
4.1224	119
4.1298	108
4.1372	113
4.1446	108
4.1520	111
4.1594	103
4.1668	107
4.1742	120
4.1816	105
4.1890	101
4.1964	98
4.2038	120
4.2112	110
4.2186	126
4.2260	110
4.2334	115
4.2408	119
4.2482	93
4.2556	102
4.2629	105
4.2703	96
4.2777	96
4.2851	111
4.2925	102
4.2999	110
4.3073	108
4.3147	107
4.3221	102
4.3295	106
4.3369	109
4.3443	108
4.3517	121
4.3591	87
4.3665	101
4.3739	112
4.3813	94
4.3887	105
4.3961	83
4.4035	92
4.4109	83
4.4183	113
4.4256	95
4.4330	113
4.4404	116
4.4478	115
4.4552	113
4.4626	95
4.4700	104
4.4774	84
4.4848	92
4.4922	90
4.4996	90
4.5070	86
4.5144	88
4.5218	90
4.5292	99
4.5366	90
4.5440	90
4.5514	91
4.5588	90
4.5662	102
4.5736	91
4.5809	97
4.5883	105
4.5957	86
4.6031	91
4.6105	85
4.6179	89
4.6253	107
4.6327	117
4.6401	88
4.6475	102
4.6549	86
4.6623	95
4.6697	84
4.6771	85
4.6845	86
4.6919	95
4.6993	98
4.7067	86
4.7141	80
4.7215	77
4.7289	103
4.7362	89
4.7436	75
4.7510	90
4.7584	91
4.7658	83
4.7732	98
4.7806	91
4.7880	112
4.7954	96
4.8028	81
4.8102	77
4.8176	106
4.8250	90
4.8324	91
4.8398	81
4.8472	91
4.8546	88
4.8620	92
4.8694	94
4.8768	107
4.8842	70
4.8915	96
4.8989	73
4.9063	76
4.9137	84
4.9211	88
4.9285	85
4.9359	85
4.9433	86
4.9507	85
4.9581	81
4.9655	98
4.9729	93
4.9803	77
4.9877	80
4.9951	87
5.0025	81
5.0099	68
5.0173	82
5.0247	90
5.0321	70
5.0395	82
5.0468	95
5.0542	89
5.0616	90
5.0690	88
5.0764	81
5.0838	85
5.0912	82
5.0986	78
5.1060	82
5.1134	68
5.1208	88
5.1282	78
5.1356	87
5.1430	96
5.1504	78
5.1578	82
5.1652	83
5.1726	83
5.1800	74
5.1874	85
5.1948	78
5.2021	98
5.2095	89
5.2169	84
5.2243	83
5.2317	88
5.2391	88
5.2465	77
5.2539	78
5.2613	96
5.2687	95
5.2761	69
5.2835	94
5.2909	87
5.2983	91
5.3057	63
5.3131	84
5.3205	73
5.3279	80
5.3353	67
5.3427	61
5.3501	72
5.3574	80
5.3648	65
5.3722	84
5.3796	90
5.3870	89
5.3944	97
5.4018	73
5.4092	69
5.4166	73
5.4240	82
5.4314	95
5.4388	86
5.4462	82
5.4536	75
5.4610	83
5.4684	71
5.4758	74
5.4832	80
5.4906	96
5.4980	72
5.5054	80
5.5127	79
5.5201	72
5.5275	75
5.5349	94
5.5423	82
5.5497	65
5.5571	84
5.5645	80
5.5719	66
5.5793	69
5.5867	73
5.5941	84
5.6015	73
5.6089	85
5.6163	99
5.6237	69
5.6311	70
5.6385	82
5.6459	70
5.6533	79
5.6607	71
5.6680	77
5.6754	71
5.6828	81
5.6902	72
5.6976	77
5.7050	77
5.7124	76
5.7198	66
5.7272	82
5.7346	92
5.7420	79
5.7494	76
5.7568	70
5.7642	67
5.7716	69
5.7790	78
5.7864	76
5.7938	61
5.8012	70
5.8086	73
5.8160	92
5.8233	79
5.8307	68
5.8381	86
5.8455	84
5.8529	91
5.8603	74
5.8677	84
5.8751	80
5.8825	99
5.8899	74
5.8973	83
5.9047	86
5.9121	79
5.9195	66
5.9269	68
5.9343	96
5.9417	85
5.9491	77
5.9565	104
5.9639	79
5.9713	79
5.9786	113
5.9860	97
5.9934	110
6.0008	95
6.0082	119
6.0156	127
6.0230	142
6.0304	143
6.0378	141
6.0452	113
6.0526	122
6.0600	89
6.0674	110
6.0748	104
6.0822	82
6.0896	81
6.0970	84
6.1044	82
6.1118	71
6.1192	73
6.1266	83
6.1340	73
6.1413	81
6.1487	68
6.1561	74
6.1635	71
6.1709	71
6.1783	65
6.1857	85
6.1931	56
6.2005	62
6.2079	78
6.2153	54
6.2227	83
6.2301	77
6.2375	65
6.2449	81
6.2523	70
6.2597	66
6.2671	87
6.2745	77
6.2819	80
6.2893	72
6.2966	56
6.3040	63
6.3114	70
6.3188	82
6.3262	63
6.3336	70
6.3410	77
6.3484	70
6.3558	70
6.3632	67
6.3706	61
6.3780	69
6.3854	75
6.3928	79
6.4002	76
6.4076	81
6.4150	72
6.4224	65
6.4298	73
6.4372	72
6.4446	66
6.4519	59
6.4593	76
6.4667	54
6.4741	78
6.4815	76
6.4889	70
6.4963	72
6.5037	76
6.5111	56
6.5185	65
6.5259	64
6.5333	60
6.5407	88
6.5481	65
6.5555	73
6.5629	71
6.5703	82
6.5777	82
6.5851	73
6.5925	66
6.5999	75
6.6072	65
6.6146	67
6.6220	83
6.6294	43
6.6368	70
6.6442	79
6.6516	69
6.6590	71
6.6664	69
6.6738	68
6.6812	76
6.6886	64
6.6960	74
6.7034	73
6.7108	73
6.7182	78
6.7256	61
6.7330	67
6.7404	65
6.7478	64
6.7552	80
6.7625	72
6.7699	65
6.7773	80
6.7847	58
6.7921	62
6.7995	69
6.8069	55
6.8143	64
6.8217	62
6.8291	74
6.8365	62
6.8439	68
6.8513	74
6.8587	69
6.8661	59
6.8735	69
6.8809	71
6.8883	73
6.8957	52
6.9031	54
6.9105	68
6.9178	85
6.9252	60
6.9326	72
6.9400	80
6.9474	62
6.9548	78
6.9622	60
6.9696	76
6.9770	69
6.9844	76
6.9918	67
6.9992	58
7.0066	46
7.0140	68
7.0214	59
7.0288	74
7.0362	68
7.0436	65
7.0510	59
7.0584	59
7.0658	72
7.0731	78
7.0805	61
7.0879	67
7.0953	55
7.1027	74
7.1101	63
7.1175	80
7.1249	74
7.1323	81
7.1397	75
7.1471	65
7.1545	68
7.1619	58
7.1693	69
7.1767	89
7.1841	65
7.1915	77
7.1989	68
7.2063	67
7.2137	78
7.2211	63
7.2284	75
7.2358	64
7.2432	85
7.2506	59
7.2580	70
7.2654	69
7.2728	69
7.2802	56
7.2876	65
7.2950	74
7.3024	63
7.3098	66
7.3172	67
7.3246	65
7.3320	66
7.3394	76
7.3468	70
7.3542	70
7.3616	69
7.3690	67
7.3764	71
7.3837	63
7.3911	75
7.3985	77
7.4059	60
7.4133	70
7.4207	74
7.4281	42
7.4355	68
7.4429	72
7.4503	73
7.4577	62
7.4651	64
7.4725	65
7.4799	57
7.4873	75
7.4947	70
7.5021	72
7.5095	74
7.5169	61
7.5243	61
7.5317	64
7.5390	75
7.5464	62
7.5538	81
7.5612	56
7.5686	66
7.5760	64
7.5834	67
7.5908	74
7.5982	61
7.6056	67
7.6130	63
7.6204	82
7.6278	75
7.6352	73
7.6426	66
7.6500	72
7.6574	69
7.6648	73
7.6722	56
7.6796	70
7.6870	75
7.6944	72
7.7017	77
7.7091	83
7.7165	77
7.7239	71
7.7313	82
7.7387	67
7.7461	78
7.7535	78
7.7609	55
7.7683	77
7.7757	90
7.7831	79
7.7905	75
7.7979	85
7.8053	68
7.8127	72
7.8201	78
7.8275	61
7.8349	54
7.8423	55
7.8497	53
7.8570	81
7.8644	72
7.8718	64
7.8792	78
7.8866	54
7.8940	80
7.9014	56
7.9088	60
7.9162	64
7.9236	75
7.9310	78
7.9384	59
7.9458	77
7.9532	59
7.9606	63
7.9680	62
7.9754	75
7.9828	72
7.9902	71
7.9976	77
8.0050	85
8.0123	93
8.0197	83
8.0271	71
8.0345	73
8.0419	72
8.0493	79
8.0567	74
8.0641	96
8.0715	79
8.0789	93
8.0863	81
8.0937	67
8.1011	83
8.1085	78
8.1159	83
8.1233	92
8.1307	93
8.1381	92
8.1455	92
8.1529	85
8.1603	93
8.1676	80
8.1750	90
8.1824	104
8.1898	103
8.1972	101
8.2046	100
8.2120	110
8.2194	116
8.2268	137
8.2342	117
8.2416	149
8.2490	151
8.2564	148
8.2638	148
8.2712	191
8.2786	171
8.2860	171
8.2934	180
8.3008	213
8.3082	196
8.3156	214
8.3229	226
8.3303	224
8.3377	258
8.3451	296
8.3525	289
8.3599	281
8.3673	323
8.3747	361
8.3821	376
8.3895	425
8.3969	530
8.4043	572
8.4117	607
8.4191	679
8.4265	865
8.4339	898
8.4413	1068
8.4487	1207
8.4561	1370
8.4635	1559
8.4709	1909
8.4782	2330
8.4856	2837
8.4930	3550
8.5004	4140
8.5078	4786
8.5152	5243
8.5226	5499
8.5300	5486
8.5374	4900
8.5448	4163
8.5522	3471
8.5596	2763
8.5670	2003
8.5744	1490
8.5818	1025
8.5892	731
8.5966	546
8.6040	400
8.6114	299
8.6188	266
8.6262	245
8.6335	216
8.6409	206
8.6483	194
8.6557	164
8.6631	172
8.6705	196
8.6779	156
8.6853	129
8.6927	133
8.7001	149
8.7075	167
8.7149	137
8.7223	158
8.7297	147
8.7371	141
8.7445	138
8.7519	113
8.7593	120
8.7667	122
8.7741	119
8.7815	136
8.7888	101
8.7962	129
8.8036	109
8.8110	113
8.8184	129
8.8258	111
8.8332	113
8.8406	121
8.8480	126
8.8554	102
8.8628	101
8.8702	107
8.8776	104
8.8850	102
8.8924	96
8.8998	117
8.9072	99
8.9146	92
8.9220	139
8.9294	100
8.9368	134
8.9441	108
8.9515	100
8.9589	112
8.9663	105
8.9737	114
8.9811	97
8.9885	93
8.9959	109
9.0033	108
9.0107	105
9.0181	112
9.0255	99
9.0329	100
9.0403	88
9.0477	96
9.0551	87
9.0625	101
9.0699	113
9.0773	95
9.0847	98
9.0921	79
9.0994	92
9.1068	104
9.1142	102
9.1216	108
9.1290	103
9.1364	94
9.1438	110
9.1512	85
9.1586	94
9.1660	110
9.1734	94
9.1808	97
9.1882	111
9.1956	87
9.2030	85
9.2104	94
9.2178	71
9.2252	90
9.2326	81
9.2400	92
9.2474	91
9.2548	94
9.2621	117
9.2695	94
9.2769	96
9.2843	85
9.2917	98
9.2991	97
9.3065	87
9.3139	95
9.3213	103
9.3287	88
9.3361	105
9.3435	79
9.3509	71
9.3583	110
9.3657	104
9.3731	71
9.3805	95
9.3879	93
9.3953	79
9.4027	79
9.4101	108
9.4174	94
9.4248	91
9.4322	79
9.4396	79
9.4470	96
9.4544	79
9.4618	70
9.4692	78
9.4766	82
9.4840	88
9.4914	95
9.4988	87
9.5062	73
9.5136	65
9.5210	78
9.5284	93
9.5358	92
9.5432	89
9.5506	78
9.5580	98
9.5654	90
9.5727	77
9.5801	76
9.5875	78
9.5949	80
9.6023	71
9.6097	74
9.6171	90
9.6245	66
9.6319	73
9.6393	77
9.6467	73
9.6541	89
9.6615	77
9.6689	71
9.6763	94
9.6837	89
9.6911	79
9.6985	73
9.7059	69
9.7133	74
9.7207	100
9.7280	81
9.7354	93
9.7428	87
9.7502	75
9.7576	86
9.7650	76
9.7724	91
9.7798	93
9.7872	68
9.7946	87
9.8020	80
9.8094	72
9.8168	92
9.8242	81
9.8316	70
9.8390	81
9.8464	63
9.8538	81
9.8612	82
9.8686	91
9.8760	95
9.8833	73
9.8907	81
9.8981	74
9.9055	74
9.9129	70
9.9203	72
9.9277	84
9.9351	76
9.9425	73
9.9499	79
9.9573	70
9.9647	70
9.9721	79
9.9795	65
9.9869	85
9.9943	88
10.0017	69
10.0091	70
10.0165	80
10.0239	84
10.0313	85
10.0386	78
10.0460	63
10.0534	84
10.0608	59
10.0682	84
10.0756	82
10.0830	78
10.0904	63
10.0978	78
10.1052	78
10.1126	84
10.1200	77
10.1274	83
10.1348	69
10.1422	84
10.1496	85
10.1570	72
10.1644	86
10.1718	84
10.1792	65
10.1866	79
10.1939	80
10.2013	85
10.2087	75
10.2161	66
10.2235	77
10.2309	84
10.2383	67
10.2457	89
10.2531	72
10.2605	90
10.2679	70
10.2753	86
10.2827	76
10.2901	67
10.2975	59
10.3049	83
10.3123	68
10.3197	77
10.3271	68
10.3345	77
10.3419	73
10.3492	74
10.3566	85
10.3640	70
10.3714	68
10.3788	77
10.3862	78
10.3936	72
10.4010	85
10.4084	65
10.4158	79
10.4232	77
10.4306	63
10.4380	77
10.4454	91
10.4528	71
10.4602	80
10.4676	76
10.4750	67
10.4824	70
10.4898	81
10.4972	74
10.5045	76
10.5119	67
10.5193	88
10.5267	70
10.5341	68
10.5415	89
10.5489	71
10.5563	66
10.5637	68
10.5711	78
10.5785	82
10.5859	83
10.5933	75
10.6007	78
10.6081	98
10.6155	79
10.6229	65
10.6303	79
10.6377	65
10.6451	60
10.6525	75
10.6598	64
10.6672	67
10.6746	66
10.6820	79
10.6894	80
10.6968	73
10.7042	90
10.7116	66
10.7190	67
10.7264	77
10.7338	68
10.7412	64
10.7486	70
10.7560	68
10.7634	74
10.7708	81
10.7782	72
10.7856	71
10.7930	70
10.8004	73
10.8078	71
10.8151	73
10.8225	67
10.8299	66
10.8373	76
10.8447	79
10.8521	64
10.8595	71
10.8669	65
10.8743	73
10.8817	78
10.8891	60
10.8965	60
10.9039	61
10.9113	62
10.9187	77
10.9261	61
10.9335	66
10.9409	76
10.9483	71
10.9557	75
10.9631	60
10.9705	68
10.9778	72
10.9852	69
10.9926	72
11.0000	62
11.0074	63
11.0148	69
11.0222	66
11.0296	67
11.0370	64
11.0444	70
11.0518	66
11.0592	53
11.0666	68
11.0740	71
11.0814	69
11.0888	80
11.0962	77
11.1036	64
11.1110	76
11.1184	68
11.1258	73
11.1331	70
11.1405	68
11.1479	78
11.1553	81
11.1627	75
11.1701	78
11.1775	91
11.1849	82
11.1923	73
11.1997	72
11.2071	66
11.2145	64
11.2219	77
11.2293	83
11.2367	70
11.2441	92
11.2515	89
11.2589	84
11.2663	67
11.2737	68
11.2811	79
11.2884	76
11.2958	66
11.3032	82
11.3106	93
11.3180	77
11.3254	90
11.3328	65
11.3402	96
11.3476	94
11.3550	79
11.3624	101
11.3698	94
11.3772	81
11.3846	80
11.3920	88
11.3994	83
11.4068	94
11.4142	99
11.4216	94
11.4290	80
11.4364	77
11.4437	82
11.4511	89
11.4585	95
11.4659	99
11.4733	107
11.4807	109
11.4881	104
11.4955	110
11.5029	100
11.5103	106
11.5177	116
11.5251	128
11.5325	106
11.5399	137
11.5473	118
11.5547	124
11.5621	159
11.5695	140
11.5769	144
11.5843	205
11.5917	198
11.5990	240
11.6064	260
11.6138	230
11.6212	328
11.6286	348
11.6360	402
11.6434	492
11.6508	590
11.6582	715
11.6656	840
11.6730	1048
11.6804	1273
11.6878	1608
11.6952	1770
11.7026	2069
11.7100	2080
11.7174	1926
11.7248	1898
11.7322	1664
11.7396	1422
11.7470	1192
11.7543	928
11.7617	714
11.7691	527
11.7765	369
11.7839	313
11.7913	234
11.7987	207
11.8061	183
11.8135	159
11.8209	133
11.8283	112
11.8357	118
11.8431	119
11.8505	108
11.8579	106
11.8653	119
11.8727	122
11.8801	88
11.8875	101
11.8949	119
11.9023	93
11.9096	109
11.9170	114
11.9244	93
11.9318	114
11.9392	116
11.9466	94
11.9540	113
11.9614	121
11.9688	95
11.9762	117
11.9836	120
11.9910	110
11.9984	120
12.0058	99
12.0132	111
12.0206	113
12.0280	98
12.0354	104
12.0428	112
12.0502	103
12.0576	99
12.0649	104
12.0723	116
12.0797	95
12.0871	113
12.0945	106
12.1019	112
12.1093	128
12.1167	106
12.1241	138
12.1315	105
12.1389	111
12.1463	102
12.1537	103
12.1611	102
12.1685	120
12.1759	140
12.1833	137
12.1907	153
12.1981	156
12.2055	154
12.2129	193
12.2202	181
12.2276	222
12.2350	213
12.2424	233
12.2498	248
12.2572	267
12.2646	333
12.2720	381
12.2794	500
12.2868	483
12.2942	628
12.3016	716
12.3090	810
12.3164	1044
12.3238	1133
12.3312	1450
12.3386	1701
12.3460	1841
12.3534	1944
12.3608	1967
12.3682	1993
12.3755	1638
12.3829	1540
12.3903	1297
12.3977	1080
12.4051	837
12.4125	620
12.4199	500
12.4273	357
12.4347	294
12.4421	231
12.4495	208
12.4569	176
12.4643	175
12.4717	152
12.4791	137
12.4865	122
12.4939	107
12.5013	120
12.5087	119
12.5161	143
12.5235	102
12.5309	109
12.5382	105
12.5456	90
12.5530	78
12.5604	103
12.5678	104
12.5752	114
12.5826	95
12.5900	87
12.5974	88
12.6048	102
12.6122	99
12.6196	100
12.6270	88
12.6344	104
12.6418	92
12.6492	88
12.6566	85
12.6640	98
12.6714	94
12.6788	104
12.6862	98
12.6935	88
12.7009	102
12.7083	96
12.7157	99
12.7231	101
12.7305	97
12.7379	91
12.7453	94
12.7527	92
12.7601	92
12.7675	105
12.7749	87
12.7823	101
12.7897	116
12.7971	102
12.8045	100
12.8119	102
12.8193	108
12.8267	103
12.8341	86
12.8415	99
12.8488	99
12.8562	86
12.8636	88
12.8710	87
12.8784	101
12.8858	110
12.8932	102
12.9006	90
12.9080	92
12.9154	118
12.9228	111
12.9302	104
12.9376	104
12.9450	111
12.9524	86
12.9598	88
12.9672	98
12.9746	106
12.9820	109
12.9894	120
12.9968	84
13.0041	104
13.0115	100
13.0189	113
13.0263	121
13.0337	105
13.0411	107
13.0485	101
13.0559	138
13.0633	145
13.0707	136
13.0781	118
13.0855	130
13.0929	142
13.1003	145
13.1077	167
13.1151	199
13.1225	188
13.1299	231
13.1373	276
13.1447	308
13.1521	335
13.1594	363
13.1668	434
13.1742	510
13.1816	602
13.1890	697
13.1964	884
13.2038	1077
13.2112	1347
13.2186	1510
13.2260	1664
13.2334	1772
13.2408	1780
13.2482	1775
13.2556	1638
13.2630	1475
13.2704	1364
13.2778	1102
13.2852	857
13.2926	722
13.3000	504
13.3074	429
13.3147	333
13.3221	262
13.3295	242
13.3369	176
13.3443	165
13.3517	155
13.3591	168
13.3665	146
13.3739	161
13.3813	162
13.3887	134
13.3961	136
13.4035	150
13.4109	141
13.4183	116
13.4257	127
13.4331	135
13.4405	104
13.4479	132
13.4553	135
13.4627	157
13.4700	116
13.4774	133
13.4848	156
13.4922	145
13.4996	168
13.5070	130
13.5144	144
13.5218	168
13.5292	201
13.5366	205
13.5440	226
13.5514	247
13.5588	315
13.5662	307
13.5736	360
13.5810	391
13.5884	445
13.5958	518
13.6032	648
13.6106	709
13.6180	830
13.6253	1103
13.6327	1292
13.6401	1605
13.6475	1936
13.6549	2194
13.6623	2295
13.6697	2376
13.6771	2380
13.6845	2397
13.6919	2100
13.6993	1905
13.7067	1777
13.7141	1403
13.7215	1157
13.7289	900
13.7363	707
13.7437	508
13.7511	408
13.7585	330
13.7659	245
13.7733	220
13.7806	201
13.7880	172
13.7954	164
13.8028	150
13.8102	136
13.8176	127
13.8250	154
13.8324	141
13.8398	127
13.8472	132
13.8546	124
13.8620	122
13.8694	122
13.8768	123
13.8842	105
13.8916	111
13.8990	109
13.9064	103
13.9138	104
13.9212	81
13.9286	108
13.9359	102
13.9433	104
13.9507	103
13.9581	103
13.9655	108
13.9729	95
13.9803	106
13.9877	106
13.9951	90
14.0025	111
14.0099	89
14.0173	105
14.0247	115
14.0321	101
14.0395	96
14.0469	98
14.0543	110
14.0617	104
14.0691	89
14.0765	98
14.0839	96
14.0913	103
14.0986	88
14.1060	102
14.1134	108
14.1208	85
14.1282	95
14.1356	73
14.1430	87
14.1504	93
14.1578	101
14.1652	90
14.1726	70
14.1800	95
14.1874	98
14.1948	77
14.2022	93
14.2096	79
14.2170	86
14.2244	103
14.2318	100
14.2392	78
14.2466	79
14.2539	94
14.2613	82
14.2687	80
14.2761	87
14.2835	100
14.2909	79
14.2983	97
14.3057	78
14.3131	99
14.3205	107
14.3279	100
14.3353	104
14.3427	115
14.3501	119
14.3575	125
14.3649	129
14.3723	135
14.3797	122
14.3871	152
14.3945	151
14.4019	127
14.4092	123
14.4166	138
14.4240	124
14.4314	124
14.4388	121
14.4462	116
14.4536	103
14.4610	121
14.4684	94
14.4758	91
14.4832	87
14.4906	83
14.4980	76
14.5054	81
14.5128	78
14.5202	98
14.5276	62
14.5350	84
14.5424	76
14.5498	79
14.5572	83
14.5645	80
14.5719	80
14.5793	97
14.5867	91
14.5941	86
14.6015	68
14.6089	83
14.6163	86
14.6237	76
14.6311	63
14.6385	71
14.6459	84
14.6533	79
14.6607	89
14.6681	97
14.6755	82
14.6829	86
14.6903	68
14.6977	70
14.7051	82
14.7125	87
14.7198	74
14.7272	105
14.7346	87
14.7420	84
14.7494	89
14.7568	68
14.7642	83
14.7716	83
14.7790	83
14.7864	65
14.7938	77
14.8012	83
14.8086	75
14.8160	67
14.8234	81
14.8308	76
14.8382	91
14.8456	75
14.8530	81
14.8604	68
14.8678	80
14.8751	90
14.8825	72
14.8899	73
14.8973	75
14.9047	76
14.9121	67
14.9195	76
14.9269	96
14.9343	65
14.9417	72
14.9491	89
14.9565	87
14.9639	73
14.9713	75
14.9787	63
14.9861	83
14.9935	72
15.0009	70
15.0083	68
15.0157	66
15.0231	77
15.0304	74
15.0378	62
15.0452	85
15.0526	72
15.0600	72
15.0674	70
15.0748	77
15.0822	71
15.0896	68
15.0970	77
15.1044	87
15.1118	68
15.1192	62
15.1266	67
15.1340	78
15.1414	82
15.1488	79
15.1562	61
15.1636	81
15.1710	63
15.1784	49
15.1857	69
15.1931	77
15.2005	81
15.2079	74
15.2153	60
15.2227	67
15.2301	80
15.2375	73
15.2449	81
15.2523	71
15.2597	73
15.2671	76
15.2745	63
15.2819	62
15.2893	80
15.2967	74
15.3041	69
15.3115	76
15.3189	63
15.3263	75
15.3337	59
15.3410	69
15.3484	78
15.3558	74
15.3632	79
15.3706	73
15.3780	71
15.3854	68
15.3928	57
15.4002	60
15.4076	66
15.4150	71
15.4224	81
15.4298	76
15.4372	78
15.4446	74
15.4520	82
15.4594	69
15.4668	75
15.4742	84
15.4816	88
15.4890	88
15.4963	87
15.5037	89
15.5111	104
15.5185	86
15.5259	89
15.5333	97
15.5407	95
15.5481	99
15.5555	66
15.5629	99
15.5703	83
15.5777	69
15.5851	76
15.5925	89
15.5999	85
15.6073	86
15.6147	76
15.6221	87
15.6295	71
15.6369	72
15.6443	67
15.6516	67
15.6590	59
15.6664	69
15.6738	68
15.6812	65
15.6886	64
15.6960	68
15.7034	63
15.7108	59
15.7182	72
15.7256	68
15.7330	65
15.7404	72
15.7478	71
15.7552	50
15.7626	84
15.7700	80
15.7774	54
15.7848	44
15.7922	56
15.7996	61
15.8070	61
15.8143	66
15.8217	70
15.8291	65
15.8365	68
15.8439	74
15.8513	61
15.8587	54
15.8661	55
15.8735	70
15.8809	64
15.8883	67
15.8957	67
15.9031	55
15.9105	51
15.9179	55
15.9253	70
15.9327	70
15.9401	57
15.9475	53
15.9549	50
15.9623	75
15.9696	48
15.9770	64
15.9844	65
15.9918	69
15.9992	60
16.0066	65
16.0140	52
16.0214	63
16.0288	66
16.0362	57
16.0436	63
16.0510	55
16.0584	58
16.0658	63
16.0732	48
16.0806	75
16.0880	57
16.0954	62
16.1028	64
16.1102	49
16.1176	71
16.1249	70
16.1323	68
16.1397	61
16.1471	57
16.1545	69
16.1619	62
16.1693	52
16.1767	68
16.1841	60
16.1915	62
16.1989	44
16.2063	48
16.2137	64
16.2211	62
16.2285	61
16.2359	56
16.2433	53
16.2507	49
16.2581	69
16.2655	51
16.2729	65
16.2802	57
16.2876	58
16.2950	53
16.3024	60
16.3098	55
16.3172	62
16.3246	85
16.3320	61
16.3394	75
16.3468	64
16.3542	54
16.3616	64
16.3690	57
16.3764	75
16.3838	74
16.3912	67
16.3986	62
16.4060	77
16.4134	64
16.4208	76
16.4282	53
16.4355	76
16.4429	79
16.4503	66
16.4577	63
16.4651	73
16.4725	75
16.4799	70
16.4873	71
16.4947	66
16.5021	61
16.5095	84
16.5169	64
16.5243	69
16.5317	65
16.5391	69
16.5465	64
16.5539	66
16.5613	73
16.5687	81
16.5761	74
16.5835	78
16.5908	89
16.5982	70
16.6056	58
16.6130	67
16.6204	75
16.6278	92
16.6352	93
16.6426	76
16.6500	86
16.6574	93
16.6648	90
16.6722	95
16.6796	89
16.6870	97
16.6944	110
16.7018	102
16.7092	118
16.7166	113
16.7240	135
16.7314	158
16.7388	142
16.7461	151
16.7535	183
16.7609	196
16.7683	224
16.7757	250
16.7831	246
16.7905	283
16.7979	330
16.8053	372
16.8127	311
16.8201	320
16.8275	327
16.8349	348
16.8423	320
16.8497	337
16.8571	297
16.8645	288
16.8719	270
16.8793	245
16.8867	214
16.8941	226
16.9014	224
16.9088	209
16.9162	233
16.9236	208
16.9310	217
16.9384	258
16.9458	290
16.9532	337
16.9606	403
16.9680	476
16.9754	564
16.9828	640
16.9902	839
16.9976	946
17.0050	1176
17.0124	1276
17.0198	1421
17.0272	1452
17.0346	1425
17.0420	1232
17.0494	1208
17.0567	1118
17.0641	1027
17.0715	853
17.0789	711
17.0863	573
17.0937	497
17.1011	390
17.1085	303
17.1159	252
17.1233	206
17.1307	155
17.1381	132
17.1455	127
17.1529	134
17.1603	111
17.1677	99
17.1751	105
17.1825	112
17.1899	96
17.1973	84
17.2047	81
17.2120	94
17.2194	87
17.2268	86
17.2342	85
17.2416	74
17.2490	94
17.2564	71
17.2638	96
17.2712	85
17.2786	86
17.2860	82
17.2934	81
17.3008	98
17.3082	72
17.3156	65
17.3230	70
17.3304	78
17.3378	94
17.3452	71
17.3526	67
17.3600	82
17.3674	68
17.3747	60
17.3821	73
17.3895	87
17.3969	85
17.4043	78
17.4117	71
17.4191	66
17.4265	66
17.4339	58
17.4413	66
17.4487	70
17.4561	70
17.4635	69
17.4709	68
17.4783	78
17.4857	78
17.4931	73
17.5005	65
17.5079	70
17.5153	63
17.5227	88
17.5300	59
17.5374	70
17.5448	85
17.5522	75
17.5596	82
17.5670	78
17.5744	64
17.5818	72
17.5892	68
17.5966	73
17.6040	55
17.6114	72
17.6188	79
17.6262	66
17.6336	85
17.6410	90
17.6484	79
17.6558	92
17.6632	104
17.6706	104
17.6780	91
17.6853	84
17.6927	111
17.7001	91
17.7075	110
17.7149	123
17.7223	128
17.7297	126
17.7371	148
17.7445	172
17.7519	181
17.7593	170
17.7667	236
17.7741	272
17.7815	288
17.7889	312
17.7963	390
17.8037	391
17.8111	434
17.8185	445
17.8259	437
17.8333	475
17.8406	480
17.8480	503
17.8554	484
17.8628	425
17.8702	454
17.8776	351
17.8850	308
17.8924	294
17.8998	244
17.9072	242
17.9146	193
17.9220	165
17.9294	169
17.9368	131
17.9442	144
17.9516	118
17.9590	128
17.9664	117
17.9738	86
17.9812	98
17.9886	81
17.9959	90
18.0033	80
18.0107	95
18.0181	78
18.0255	82
18.0329	62
18.0403	94
18.0477	70
18.0551	79
18.0625	65
18.0699	88
18.0773	73
18.0847	88
18.0921	68
18.0995	74
18.1069	82
18.1143	56
18.1217	88
18.1291	84
18.1365	76
18.1439	74
18.1512	77
18.1586	65
18.1660	81
18.1734	62
18.1808	70
18.1882	72
18.1956	75
18.2030	48
18.2104	62
18.2178	78
18.2252	71
18.2326	75
18.2400	81
18.2474	65
18.2548	69
18.2622	78
18.2696	56
18.2770	78
18.2844	65
18.2918	75
18.2992	73
18.3065	94
18.3139	82
18.3213	74
18.3287	86
18.3361	104
18.3435	90
18.3509	89
18.3583	86
18.3657	76
18.3731	85
18.3805	80
18.3879	101
18.3953	90
18.4027	105
18.4101	91
18.4175	99
18.4249	107
18.4323	113
18.4397	149
18.4471	159
18.4545	134
18.4618	155
18.4692	195
18.4766	209
18.4840	237
18.4914	306
18.4988	357
18.5062	398
18.5136	471
18.5210	551
18.5284	612
18.5358	700
18.5432	801
18.5506	814
18.5580	870
18.5654	858
18.5728	834
18.5802	839
18.5876	856
18.5950	917
18.6024	873
18.6098	909
18.6171	896
18.6245	885
18.6319	844
18.6393	794
18.6467	737
18.6541	701
18.6615	626
18.6689	500
18.6763	459
18.6837	410
18.6911	361
18.6985	313
18.7059	246
18.7133	198
18.7207	157
18.7281	168
18.7355	133
18.7429	121
18.7503	105
18.7577	97
18.7651	86
18.7724	93
18.7798	82
18.7872	99
18.7946	78
18.8020	72
18.8094	89
18.8168	77
18.8242	73
18.8316	75
18.8390	85
18.8464	86
18.8538	86
18.8612	81
18.8686	79
18.8760	71
18.8834	84
18.8908	94
18.8982	86
18.9056	82
18.9130	88
18.9204	72
18.9278	79
18.9351	94
18.9425	79
18.9499	95
18.9573	92
18.9647	75
18.9721	84
18.9795	83
18.9869	82
18.9943	75
19.0017	71
19.0091	79
19.0165	80
19.0239	87
19.0313	69
19.0387	64
19.0461	76
19.0535	71
19.0609	71
19.0683	80
19.0757	66
19.0831	95
19.0904	64
19.0978	68
19.1052	60
19.1126	71
19.1200	62
19.1274	74
19.1348	79
19.1422	61
19.1496	71
19.1570	70
19.1644	71
19.1718	75
19.1792	65
19.1866	68
19.1940	68
19.2014	53
19.2088	74
19.2162	68
19.2236	80
19.2310	47
19.2384	60
19.2457	65
19.2531	67
19.2605	57
19.2679	69
19.2753	75
19.2827	70
19.2901	67
19.2975	76
19.3049	68
19.3123	66
19.3197	83
19.3271	67
19.3345	74
19.3419	87
19.3493	71
19.3567	106
19.3641	101
19.3715	107
19.3789	100
19.3863	127
19.3937	122
19.4010	165
19.4084	183
19.4158	215
19.4232	240
19.4306	258
19.4380	279
19.4454	304
19.4528	284
19.4602	303
19.4676	272
19.4750	294
19.4824	239
19.4898	224
19.4972	223
19.5046	189
19.5120	184
19.5194	146
19.5268	171
19.5342	152
19.5416	108
19.5490	110
19.5563	90
19.5637	93
19.5711	92
19.5785	77
19.5859	74
19.5933	77
19.6007	75
19.6081	82
19.6155	84
19.6229	73
19.6303	73
19.6377	83
19.6451	75
19.6525	66
19.6599	81
19.6673	59
19.6747	79
19.6821	78
19.6895	62
19.6969	68
19.7043	65
19.7116	79
19.7190	77
19.7264	66
19.7338	69
19.7412	65
19.7486	81
19.7560	83
19.7634	77
19.7708	74
19.7782	63
19.7856	60
19.7930	81
19.8004	75
19.8078	76
19.8152	94
19.8226	61
19.8300	82
19.8374	99
19.8448	72
19.8522	59
19.8596	72
19.8669	77
19.8743	75
19.8817	68
19.8891	49
19.8965	63
19.9039	70
19.9113	64
19.9187	68
19.9261	70
19.9335	59
19.9409	86
19.9483	65
19.9557	51
19.9631	63
19.9705	71
19.9779	67
19.9853	79
19.9927	63
20.0001	70
20.0075	74
20.0149	64
20.0222	69
20.0296	75
20.0370	80
20.0444	75
20.0518	71
20.0592	70
20.0666	67
20.0740	78
20.0814	71
20.0888	71
20.0962	74
20.1036	59
20.1110	84
20.1184	59
20.1258	78
20.1332	66
20.1406	79
20.1480	79
20.1554	69
20.1628	68
20.1702	68
20.1775	86
20.1849	70
20.1923	74
20.1997	78
20.2071	78
20.2145	74
20.2219	63
20.2293	82
20.2367	74
20.2441	64
20.2515	87
20.2589	78
20.2663	67
20.2737	101
20.2811	84
20.2885	87
20.2959	76
20.3033	82
20.3107	88
20.3181	73
20.3255	89
20.3328	91
20.3402	113
20.3476	92
20.3550	100
20.3624	107
20.3698	99
20.3772	120
20.3846	105
20.3920	126
20.3994	120
20.4068	142
20.4142	156
20.4216	160
20.4290	209
20.4364	231
20.4438	226
20.4512	278
20.4586	343
20.4660	369
20.4734	432
20.4808	479
20.4882	525
20.4955	600
20.5029	633
20.5103	705
20.5177	710
20.5251	690
20.5325	678
20.5399	593
20.5473	638
20.5547	577
20.5621	515
20.5695	502
20.5769	447
20.5843	367
20.5917	344
20.5991	300
20.6065	266
20.6139	230
20.6213	199
20.6287	158
20.6361	174
20.6435	165
20.6508	137
20.6582	119
20.6656	117
20.6730	126
20.6804	119
20.6878	112
20.6952	96
20.7026	110
20.7100	102
20.7174	102
20.7248	99
20.7322	95
20.7396	92
20.7470	92
20.7544	101
20.7618	77
20.7692	93
20.7766	103
20.7840	105
20.7914	90
20.7988	103
20.8061	86
20.8135	95
20.8209	89
20.8283	93
20.8357	104
20.8431	120
20.8505	127
20.8579	108
20.8653	117
20.8727	133
20.8801	156
20.8875	149
20.8949	151
20.9023	192
20.9097	223
20.9171	231
20.9245	273
20.9319	313
20.9393	318
20.9467	273
20.9541	267
20.9614	248
20.9688	246
20.9762	225
20.9836	210
20.9910	172
20.9984	187
21.0058	160
21.0132	160
21.0206	126
21.0280	130
21.0354	123
21.0428	111
21.0502	125
21.0576	94
21.0650	104
21.0724	96
21.0798	104
21.0872	91
21.0946	102
21.1020	97
21.1094	87
21.1167	94
21.1241	106
21.1315	92
21.1389	105
21.1463	109
21.1537	118
21.1611	98
21.1685	117
21.1759	123
21.1833	108
21.1907	115
21.1981	128
21.2055	124
21.2129	126
21.2203	128
21.2277	120
21.2351	119
21.2425	130
21.2499	120
21.2573	133
21.2647	126
21.2720	131
21.2794	122
21.2868	141
21.2942	158
21.3016	131
21.3090	140
21.3164	139
21.3238	145
21.3312	130
21.3386	132
21.3460	154
21.3534	168
21.3608	151
21.3682	184
21.3756	181
21.3830	201
21.3904	200
21.3978	248
21.4052	242
21.4126	307
21.4200	305
21.4273	328
21.4347	404
21.4421	477
21.4495	544
21.4569	653
21.4643	829
21.4717	947
21.4791	1179
21.4865	1410
21.4939	1512
21.5013	1572
21.5087	1588
21.5161	1522
21.5235	1533
21.5309	1422
21.5383	1200
21.5457	1205
21.5531	1062
21.5605	1062
21.5679	900
21.5753	803
21.5826	682
21.5900	539
21.5974	505
21.6048	410
21.6122	387
21.6196	365
21.6270	321
21.6344	298
21.6418	290
21.6492	304
21.6566	308
21.6640	301
21.6714	300
21.6788	312
21.6862	337
21.6936	299
21.7010	337
21.7084	320
21.7158	329
21.7232	373
21.7306	369
21.7379	337
21.7453	329
21.7527	367
21.7601	298
21.7675	320
21.7749	335
21.7823	357
21.7897	369
21.7971	317
21.8045	388
21.8119	370
21.8193	447
21.8267	467
21.8341	470
21.8415	566
21.8489	658
21.8563	750
21.8637	845
21.8711	974
21.8785	1200
21.8859	1433
21.8932	1807
21.9006	2251
21.9080	2723
21.9154	3383
21.9228	4066
21.9302	4989
21.9376	5597
21.9450	6251
21.9524	6712
21.9598	6986
21.9672	6811
21.9746	6567
21.9820	6074
21.9894	5669
21.9968	5197
22.0042	4804
22.0116	4347
22.0190	3867
22.0264	3415
22.0338	2952
22.0412	2333
22.0485	1920
22.0559	1480
22.0633	1114
22.0707	921
22.0781	734
22.0855	605
22.0929	505
22.1003	485
22.1077	387
22.1151	363
22.1225	340
22.1299	290
22.1373	297
22.1447	296
22.1521	263
22.1595	270
22.1669	221
22.1743	218
22.1817	210
22.1891	216
22.1965	226
22.2039	194
22.2112	188
22.2186	201
22.2260	183
22.2334	177
22.2408	195
22.2482	196
22.2556	180
22.2630	164
22.2704	141
22.2778	161
22.2852	164
22.2926	150
22.3000	144
22.3074	139
22.3148	153
22.3222	144
22.3296	154
22.3370	137
22.3444	159
22.3518	163
22.3592	146
22.3665	132
22.3739	118
22.3813	115
22.3887	144
22.3961	115
22.4035	157
22.4109	149
22.4183	141
22.4257	139
22.4331	146
22.4405	124
22.4479	141
22.4553	122
22.4627	143
22.4701	140
22.4775	135
22.4849	115
22.4923	146
22.4997	124
22.5071	142
22.5145	119
22.5218	118
22.5292	121
22.5366	107
22.5440	125
22.5514	139
22.5588	125
22.5662	119
22.5736	109
22.5810	131
22.5884	116
22.5958	145
22.6032	123
22.6106	111
22.6180	120
22.6254	143
22.6328	136
22.6402	138
22.6476	124
22.6550	131
22.6624	147
22.6698	168
22.6771	156
22.6845	189
22.6919	228
22.6993	213
22.7067	279
22.7141	291
22.7215	322
22.7289	377
22.7363	393
22.7437	398
22.7511	422
22.7585	363
22.7659	364
22.7733	378
22.7807	335
22.7881	349
22.7955	356
22.8029	307
22.8103	268
22.8177	265
22.8251	221
22.8324	188
22.8398	171
22.8472	149
22.8546	149
22.8620	137
22.8694	138
22.8768	137
22.8842	105
22.8916	128
22.8990	116
22.9064	107
22.9138	103
22.9212	113
22.9286	127
22.9360	108
22.9434	101
22.9508	114
22.9582	122
22.9656	112
22.9730	108
22.9804	104
22.9877	117
22.9951	72
23.0025	110
23.0099	126
23.0173	114
23.0247	87
23.0321	102
23.0395	98
23.0469	110
23.0543	89
23.0617	102
23.0691	91
23.0765	85
23.0839	85
23.0913	111
23.0987	81
23.1061	101
23.1135	103
23.1209	84
23.1283	104
23.1357	89
23.1430	107
23.1504	98
23.1578	90
23.1652	91
23.1726	96
23.1800	107
23.1874	115
23.1948	99
23.2022	95
23.2096	103
23.2170	100
23.2244	102
23.2318	99
23.2392	121
23.2466	113
23.2540	104
23.2614	88
23.2688	99
23.2762	119
23.2836	99
23.2910	141
23.2983	95
23.3057	99
23.3131	116
23.3205	122
23.3279	107
23.3353	141
23.3427	126
23.3501	129
23.3575	136
23.3649	138
23.3723	149
23.3797	166
23.3871	166
23.3945	187
23.4019	212
23.4093	253
23.4167	255
23.4241	309
23.4315	412
23.4389	445
23.4463	497
23.4536	564
23.4610	552
23.4684	618
23.4758	651
23.4832	636
23.4906	575
23.4980	520
23.5054	507
23.5128	458
23.5202	447
23.5276	441
23.5350	375
23.5424	359
23.5498	308
23.5572	268
23.5646	233
23.5720	191
23.5794	178
23.5868	162
23.5942	144
23.6016	140
23.6089	137
23.6163	134
23.6237	121
23.6311	116
23.6385	160
23.6459	136
23.6533	120
23.6607	127
23.6681	114
23.6755	107
23.6829	108
23.6903	106
23.6977	106
23.7051	114
23.7125	117
23.7199	103
23.7273	118
23.7347	104
23.7421	96
23.7495	124
23.7569	98
23.7643	107
23.7716	103
23.7790	121
23.7864	115
23.7938	113
23.8012	112
23.8086	120
23.8160	133
23.8234	133
23.8308	135
23.8382	136
23.8456	128
23.8530	133
23.8604	120
23.8678	136
23.8752	165
23.8826	166
23.8900	198
23.8974	204
23.9048	205
23.9122	213
23.9196	282
23.9269	300
23.9343	351
23.9417	337
23.9491	437
23.9565	464
23.9639	470
23.9713	535
23.9787	534
23.9861	520
23.9935	501
24.0009	468
24.0083	432
24.0157	462
24.0231	444
24.0305	378
24.0379	422
24.0453	334
24.0527	320
24.0601	292
24.0675	264
24.0749	233
24.0822	220
24.0896	192
24.0970	183
24.1044	171
24.1118	197
24.1192	152
24.1266	142
24.1340	147
24.1414	150
24.1488	135
24.1562	116
24.1636	140
24.1710	134
24.1784	145
24.1858	134
24.1932	142
24.2006	127
24.2080	153
24.2154	179
24.2228	169
24.2302	182
24.2375	196
24.2449	203
24.2523	253
24.2597	251
24.2671	327
24.2745	314
24.2819	366
24.2893	322
24.2967	365
24.3041	374
24.3115	340
24.3189	360
24.3263	367
24.3337	401
24.3411	436
24.3485	455
24.3559	471
24.3633	500
24.3707	505
24.3781	527
24.3855	542
24.3928	503
24.4002	480
24.4076	443
24.4150	420
24.4224	395
24.4298	347
24.4372	371
24.4446	342
24.4520	329
24.4594	266
24.4668	232
24.4742	210
24.4816	196
24.4890	192
24.4964	147
24.5038	167
24.5112	136
24.5186	132
24.5260	130
24.5334	120
24.5408	137
24.5481	107
24.5555	118
24.5629	107
24.5703	102
24.5777	102
24.5851	94
24.5925	119
24.5999	91
24.6073	107
24.6147	111
24.6221	109
24.6295	114
24.6369	94
24.6443	128
24.6517	124
24.6591	105
24.6665	131
24.6739	120
24.6813	120
24.6887	142
24.6961	137
24.7034	107
24.7108	132
24.7182	113
24.7256	127
24.7330	162
24.7404	184
24.7478	201
24.7552	209
24.7626	206
24.7700	231
24.7774	225
24.7848	215
24.7922	238
24.7996	241
24.8070	227
24.8144	204
24.8218	175
24.8292	198
24.8366	181
24.8440	209
24.8514	173
24.8587	165
24.8661	154
24.8735	123
24.8809	135
24.8883	143
24.8957	123
24.9031	114
24.9105	106
24.9179	116
24.9253	105
24.9327	116
24.9401	102
24.9475	122
24.9549	104
24.9623	115
24.9697	96
24.9771	109
24.9845	128
24.9919	132
24.9993	114
25.0067	118
25.0140	100
25.0214	111
25.0288	131
25.0362	126
25.0436	126
25.0510	122
25.0584	124
25.0658	109
25.0732	114
25.0806	112
25.0880	121
25.0954	103
25.1028	115
25.1102	116
25.1176	106
25.1250	89
25.1324	112
25.1398	103
25.1472	115
25.1546	112
25.1620	101
25.1693	124
25.1767	110
25.1841	132
25.1915	103
25.1989	96
25.2063	106
25.2137	120
25.2211	111
25.2285	128
25.2359	116
25.2433	132
25.2507	130
25.2581	115
25.2655	108
25.2729	99
25.2803	131
25.2877	108
25.2951	137
25.3025	128
25.3099	134
25.3173	129
25.3247	138
25.3320	160
25.3394	153
25.3468	169
25.3542	181
25.3616	192
25.3690	187
25.3764	219
25.3838	240
25.3912	277
25.3986	296
25.4060	343
25.4134	404
25.4208	489
25.4282	555
25.4356	640
25.4430	783
25.4504	859
25.4578	1044
25.4652	1135
25.4726	1177
25.4800	1274
25.4873	1204
25.4947	1176
25.5021	1165
25.5095	997
25.5169	964
25.5243	898
25.5317	924
25.5391	910
25.5465	806
25.5539	853
25.5613	784
25.5687	735
25.5761	780
25.5835	756
25.5909	748
25.5983	779
25.6057	835
25.6131	775
25.6205	808
25.6279	775
25.6353	705
25.6426	678
25.6500	651
25.6574	582
25.6648	595
25.6722	564
25.6796	523
25.6870	499
25.6944	444
25.7018	401
25.7092	373
25.7166	289
25.7240	283
25.7314	275
25.7388	205
25.7462	213
25.7536	222
25.7610	193
25.7684	191
25.7758	174
25.7832	196
25.7906	206
25.7979	199
25.8053	245
25.8127	203
25.8201	244
25.8275	231
25.8349	228
25.8423	255
25.8497	233
25.8571	249
25.8645	204
25.8719	238
25.8793	236
25.8867	243
25.8941	225
25.9015	203
25.9089	214
25.9163	180
25.9237	168
25.9311	180
25.9385	154
25.9459	159
25.9532	154
25.9606	149
25.9680	139
25.9754	138
25.9828	136
25.9902	135
25.9976	121
26.0050	116
26.0124	134
26.0198	97
26.0272	130
26.0346	103
26.0420	120
26.0494	114
26.0568	119
26.0642	125
26.0716	127
26.0790	120
26.0864	110
26.0938	113
26.1012	119
26.1085	113
26.1159	111
26.1233	102
26.1307	99
26.1381	122
26.1455	124
26.1529	125
26.1603	113
26.1677	97
26.1751	96
26.1825	103
26.1899	124
26.1973	123
26.2047	130
26.2121	110
26.2195	135
26.2269	131
26.2343	117
26.2417	111
26.2491	120
26.2565	126
26.2638	123
26.2712	121
26.2786	139
26.2860	121
26.2934	135
26.3008	132
26.3082	143
26.3156	128
26.3230	139
26.3304	146
26.3378	153
26.3452	140
26.3526	170
26.3600	144
26.3674	204
26.3748	222
26.3822	211
26.3896	240
26.3970	235
26.4044	261
26.4118	303
26.4191	298
26.4265	387
26.4339	448
26.4413	505
26.4487	567
26.4561	653
26.4635	756
26.4709	827
26.4783	916
26.4857	1027
26.4931	1169
26.5005	1207
26.5079	1306
26.5153	1350
26.5227	1298
26.5301	1315
26.5375	1226
26.5449	1219
26.5523	1161
26.5597	1050
26.5671	923
26.5744	964
26.5818	927
26.5892	847
26.5966	757
26.6040	711
26.6114	642
26.6188	574
26.6262	449
26.6336	392
26.6410	358
26.6484	309
26.6558	288
26.6632	249
26.6706	235
26.6780	214
26.6854	218
26.6928	201
26.7002	204
26.7076	188
26.7150	187
26.7224	154
26.7297	167
26.7371	165
26.7445	154
26.7519	146
26.7593	150
26.7667	157
26.7741	157
26.7815	119
26.7889	137
26.7963	135
26.8037	137
26.8111	102
26.8185	125
26.8259	108
26.8333	132
26.8407	121
26.8481	135
26.8555	111
26.8629	103
26.8703	124
26.8777	125
26.8850	123
26.8924	93
26.8998	125
26.9072	114
26.9146	110
26.9220	97
26.9294	99
26.9368	100
26.9442	117
26.9516	99
26.9590	105
26.9664	110
26.9738	90
26.9812	115
26.9886	90
26.9960	112
27.0034	91
27.0108	86
27.0182	120
27.0256	102
27.0330	99
27.0404	104
27.0477	113
27.0551	115
27.0625	120
27.0699	96
27.0773	112
27.0847	105
27.0921	93
27.0995	117
27.1069	116
27.1143	124
27.1217	93
27.1291	110
27.1365	92
27.1439	115
27.1513	100
27.1587	119
27.1661	111
27.1735	118
27.1809	90
27.1883	99
27.1957	110
27.2030	114
27.2104	129
27.2178	106
27.2252	125
27.2326	130
27.2400	117
27.2474	127
27.2548	107
27.2622	123
27.2696	126
27.2770	128
27.2844	125
27.2918	135
27.2992	131
27.3066	133
27.3140	147
27.3214	180
27.3288	171
27.3362	182
27.3436	155
27.3510	209
27.3583	220
27.3657	274
27.3731	330
27.3805	325
27.3879	344
27.3953	431
27.4027	448
27.4101	554
27.4175	647
27.4249	698
27.4323	843
27.4397	941
27.4471	1045
27.4545	1083
27.4619	1104
27.4693	1136
27.4767	1111
27.4841	1129
27.4915	1013
27.4989	924
27.5063	863
27.5136	851
27.5210	821
27.5284	701
27.5358	726
27.5432	635
27.5506	623
27.5580	511
27.5654	435
27.5728	340
27.5802	342
27.5876	297
27.5950	253
27.6024	272
27.6098	200
27.6172	227
27.6246	192
27.6320	185
27.6394	204
27.6468	163
27.6542	167
27.6616	147
27.6689	168
27.6763	154
27.6837	133
27.6911	141
27.6985	124
27.7059	150
27.7133	102
27.7207	134
27.7281	151
27.7355	113
27.7429	108
27.7503	104
27.7577	130
27.7651	112
27.7725	122
27.7799	117
27.7873	114
27.7947	106
27.8021	105
27.8095	121
27.8169	117
27.8242	102
27.8316	112
27.8390	106
27.8464	87
27.8538	117
27.8612	99
27.8686	91
27.8760	110
27.8834	107
27.8908	95
27.8982	114
27.9056	115
27.9130	109
27.9204	114
27.9278	113
27.9352	95
27.9426	101
27.9500	87
27.9574	110
27.9648	109
27.9722	111
27.9795	76
27.9869	105
27.9943	95
28.0017	92
28.0091	91
28.0165	94
28.0239	108
28.0313	102
28.0387	112
28.0461	96
28.0535	88
28.0609	98
28.0683	105
28.0757	96
28.0831	91
28.0905	103
28.0979	72
28.1053	102
28.1127	98
28.1201	101
28.1275	91
28.1348	103
28.1422	96
28.1496	110
28.1570	103
28.1644	99
28.1718	98
28.1792	112
28.1866	96
28.1940	99
28.2014	89
28.2088	115
28.2162	100
28.2236	97
28.2310	105
28.2384	106
28.2458	115
28.2532	105
28.2606	84
28.2680	107
28.2754	109
28.2828	97
28.2901	124
28.2975	127
28.3049	133
28.3123	115
28.3197	134
28.3271	121
28.3345	148
28.3419	180
28.3493	169
28.3567	166
28.3641	201
28.3715	208
28.3789	252
28.3863	315
28.3937	327
28.4011	407
28.4085	374
28.4159	460
28.4233	469
28.4307	485
28.4381	503
28.4454	484
28.4528	477
28.4602	472
28.4676	430
28.4750	423
28.4824	378
28.4898	371
28.4972	385
28.5046	377
28.5120	345
28.5194	320
28.5268	278
28.5342	245
28.5416	226
28.5490	212
28.5564	193
28.5638	187
28.5712	137
28.5786	150
28.5860	133
28.5934	117
28.6008	126
28.6081	131
28.6155	99
28.6229	101
28.6303	115
28.6377	115
28.6451	120
28.6525	106
28.6599	101
28.6673	98
28.6747	119
28.6821	99
28.6895	102
28.6969	98
28.7043	112
28.7117	78
28.7191	91
28.7265	98
28.7339	115
28.7413	102
28.7487	120
28.7561	105
28.7634	91
28.7708	122
28.7782	101
28.7856	78
28.7930	106
28.8004	109
28.8078	103
28.8152	95
28.8226	92
28.8300	114
28.8374	100
28.8448	119
28.8522	109
28.8596	109
28.8670	108
28.8744	110
28.8818	109
28.8892	109
28.8966	138
28.9040	129
28.9114	137
28.9187	124
28.9261	151
28.9335	169
28.9409	169
28.9483	194
28.9557	206
28.9631	221
28.9705	235
28.9779	250
28.9853	264
28.9927	302
29.0001	289
29.0075	273
29.0149	290
29.0223	275
29.0297	239
29.0371	234
29.0445	199
29.0519	210
29.0593	215
29.0667	218
29.0740	187
29.0814	179
29.0888	206
29.0962	141
29.1036	155
29.1110	145
29.1184	131
29.1258	115
29.1332	108
29.1406	103
29.1480	101
29.1554	102
29.1628	89
29.1702	100
29.1776	93
29.1850	101
29.1924	83
29.1998	82
29.2072	102
29.2146	76
29.2220	82
29.2293	89
29.2367	78
29.2441	74
29.2515	85
29.2589	87
29.2663	93
29.2737	88
29.2811	70
29.2885	96
29.2959	81
29.3033	85
29.3107	76
29.3181	79
29.3255	64
29.3329	81
29.3403	76
29.3477	67
29.3551	87
29.3625	73
29.3699	68
29.3773	83
29.3846	70
29.3920	82
29.3994	65
29.4068	93
29.4142	84
29.4216	84
29.4290	101
29.4364	95
29.4438	65
29.4512	90
29.4586	62
29.4660	82
29.4734	80
29.4808	98
29.4882	89
29.4956	85
29.5030	71
29.5104	84
29.5178	73
29.5252	87
29.5326	90
29.5399	61
29.5473	97
29.5547	80
29.5621	89
29.5695	85
29.5769	75
29.5843	87
29.5917	99
29.5991	67
29.6065	75
29.6139	96
29.6213	101
29.6287	90
29.6361	70
29.6435	71
29.6509	85
29.6583	82
29.6657	70
29.6731	68
29.6805	88
29.6879	71
29.6952	77
29.7026	61
29.7100	75
29.7174	93
29.7248	75
29.7322	86
29.7396	77
29.7470	79
29.7544	94
29.7618	83
29.7692	72
29.7766	82
29.7840	76
29.7914	95
29.7988	78
29.8062	91
29.8136	62
29.8210	91
29.8284	86
29.8358	78
29.8432	69
29.8505	78
29.8579	78
29.8653	78
29.8727	69
29.8801	69
29.8875	88
29.8949	76
29.9023	66
29.9097	72
29.9171	87
29.9245	87
29.9319	84
29.9393	78
29.9467	79
29.9541	80
29.9615	68
29.9689	88
29.9763	79
29.9837	73
29.9911	78
29.9985	81
30.0058	80
30.0132	86
30.0206	69
30.0280	55
30.0354	62
30.0428	85
30.0502	78
30.0576	79
30.0650	78
30.0724	85
30.0798	72
30.0872	68
30.0946	81
30.1020	72
30.1094	76
30.1168	61
30.1242	85
30.1316	74
30.1390	70
30.1464	65
30.1538	65
30.1612	87
30.1685	85
30.1759	77
30.1833	92
30.1907	70
30.1981	79
30.2055	72
30.2129	87
30.2203	83
30.2277	80
30.2351	77
30.2425	66
30.2499	70
30.2573	74
30.2647	63
30.2721	83
30.2795	74
30.2869	80
30.2943	67
30.3017	79
30.3091	82
30.3165	86
30.3238	76
30.3312	93
30.3386	82
30.3460	69
30.3534	87
30.3608	79
30.3682	66
30.3756	65
30.3830	85
30.3904	81
30.3978	78
30.4052	86
30.4126	86
30.4200	80
30.4274	90
30.4348	79
30.4422	103
30.4496	120
30.4570	99
30.4644	106
30.4718	116
30.4791	108
30.4865	153
30.4939	147
30.5013	147
30.5087	161
30.5161	133
30.5235	143
30.5309	140
30.5383	135
30.5457	143
30.5531	116
30.5605	141
30.5679	136
30.5753	128
30.5827	127
30.5901	114
30.5975	121
30.6049	122
30.6123	131
30.6197	112
30.6271	113
30.6344	96
30.6418	110
30.6492	102
30.6566	97
30.6640	91
30.6714	98
30.6788	90
30.6862	91
30.6936	76
30.7010	83
30.7084	67
30.7158	75
30.7232	85
30.7306	88
30.7380	79
30.7454	89
30.7528	69
30.7602	66
30.7676	73
30.7750	77
30.7824	69
30.7897	69
30.7971	69
30.8045	66
30.8119	83
30.8193	85
30.8267	71
30.8341	68
30.8415	71
30.8489	67
30.8563	73
30.8637	56
30.8711	74
30.8785	73
30.8859	80
30.8933	71
30.9007	73
30.9081	69
30.9155	66
30.9229	88
30.9303	67
30.9377	68
30.9450	68
30.9524	65
30.9598	85
30.9672	57
30.9746	93
30.9820	69
30.9894	69
30.9968	55
31.0042	73
31.0116	70
31.0190	74
31.0264	75
31.0338	69
31.0412	94
31.0486	76
31.0560	63
31.0634	78
31.0708	66
31.0782	74
31.0856	81
31.0930	80
31.1003	81
31.1077	79
31.1151	64
31.1225	72
31.1299	78
31.1373	75
31.1447	78
31.1521	70
31.1595	84
31.1669	59
31.1743	78
31.1817	73
31.1891	75
31.1965	82
31.2039	89
31.2113	82
31.2187	75
31.2261	66
31.2335	81
31.2409	88
31.2483	82
31.2556	77
31.2630	69
31.2704	90
31.2778	86
31.2852	80
31.2926	86
31.3000	96
31.3074	104
31.3148	98
31.3222	90
31.3296	113
31.3370	112
31.3444	118
31.3518	136
31.3592	102
31.3666	119
31.3740	136
31.3814	152
31.3888	167
31.3962	174
31.4036	163
31.4109	163
31.4183	217
31.4257	173
31.4331	171
31.4405	165
31.4479	173
31.4553	143
31.4627	164
31.4701	161
31.4775	158
31.4849	133
31.4923	123
31.4997	136
31.5071	133
31.5145	136
31.5219	108
31.5293	136
31.5367	129
31.5441	109
31.5515	152
31.5589	129
31.5662	127
31.5736	145
31.5810	131
31.5884	137
31.5958	153
31.6032	141
31.6106	121
31.6180	108
31.6254	123
31.6328	127
31.6402	118
31.6476	103
31.6550	105
31.6624	90
31.6698	130
31.6772	96
31.6846	103
31.6920	110
31.6994	117
31.7068	80
31.7142	92
31.7215	76
31.7289	102
31.7363	94
31.7437	88
31.7511	71
31.7585	93
31.7659	84
31.7733	77
31.7807	84
31.7881	95
31.7955	81
31.8029	76
31.8103	100
31.8177	74
31.8251	88
31.8325	69
31.8399	81
31.8473	99
31.8547	79
31.8621	97
31.8695	115
31.8769	111
31.8842	108
31.8916	106
31.8990	111
31.9064	107
31.9138	124
31.9212	103
31.9286	109
31.9360	99
31.9434	108
31.9508	99
31.9582	98
31.9656	120
31.9730	120
31.9804	104
31.9878	112
31.9952	114
32.0026	91
32.0100	111
32.0174	112
32.0248	107
32.0322	101
32.0395	76
32.0469	87
32.0543	91
32.0617	75
32.0691	83
32.0765	83
32.0839	74
32.0913	87
32.0987	72
32.1061	80
32.1135	83
32.1209	92
32.1283	82
32.1357	84
32.1431	81
32.1505	92
32.1579	70
32.1653	74
32.1727	72
32.1801	70
32.1875	61
32.1948	63
32.2022	63
32.2096	80
32.2170	72
32.2244	72
32.2318	73
32.2392	70
32.2466	90
32.2540	101
32.2614	64
32.2688	80
32.2762	78
32.2836	70
32.2910	69
32.2984	87
32.3058	78
32.3132	81
32.3206	66
32.3280	80
32.3354	66
32.3428	68
32.3501	68
32.3575	78
32.3649	69
32.3723	74
32.3797	62
32.3871	65
32.3945	80
32.4019	65
32.4093	75
32.4167	85
32.4241	55
32.4315	68
32.4389	84
32.4463	59
32.4537	77
32.4611	68
32.4685	68
32.4759	69
32.4833	73
32.4907	47
32.4981	80
32.5054	64
32.5128	71
32.5202	64
32.5276	77
32.5350	56
32.5424	80
32.5498	76
32.5572	75
32.5646	81
32.5720	74
32.5794	72
32.5868	61
32.5942	80
32.6016	77
32.6090	68
32.6164	65
32.6238	68
32.6312	79
32.6386	68
32.6460	71
32.6534	77
32.6607	54
32.6681	70
32.6755	82
32.6829	75
32.6903	71
32.6977	92
32.7051	74
32.7125	84
32.7199	72
32.7273	54
32.7347	70
32.7421	55
32.7495	83
32.7569	82
32.7643	80
32.7717	64
32.7791	67
32.7865	75
32.7939	77
32.8013	87
32.8087	90
32.8160	81
32.8234	68
32.8308	90
32.8382	82
32.8456	70
32.8530	70
32.8604	81
32.8678	82
32.8752	96
32.8826	77
32.8900	85
32.8974	75
32.9048	83
32.9122	87
32.9196	76
32.9270	82
32.9344	86
32.9418	70
32.9492	71
32.9566	68
32.9640	86
32.9713	83
32.9787	83
32.9861	85
32.9935	66
33.0009	64
33.0083	87
33.0157	75
33.0231	80
33.0305	83
33.0379	81
33.0453	72
33.0527	83
33.0601	71
33.0675	78
33.0749	71
33.0823	83
33.0897	88
33.0971	55
33.1045	83
33.1119	60
33.1193	79
33.1266	71
33.1340	64
33.1414	73
33.1488	76
33.1562	81
33.1636	59
33.1710	72
33.1784	73
33.1858	73
33.1932	87
33.2006	80
33.2080	81
33.2154	59
33.2228	70
33.2302	81
33.2376	68
33.2450	88
33.2524	89
33.2598	99
33.2672	96
33.2746	81
33.2819	102
33.2893	96
33.2967	113
33.3041	101
33.3115	107
33.3189	104
33.3263	122
33.3337	125
33.3411	124
33.3485	115
33.3559	111
33.3633	113
33.3707	109
33.3781	119
33.3855	109
33.3929	102
33.4003	116
33.4077	113
33.4151	82
33.4225	117
33.4299	117
33.4373	127
33.4446	137
33.4520	115
33.4594	135
33.4668	140
33.4742	154
33.4816	182
33.4890	169
33.4964	212
33.5038	237
33.5112	212
33.5186	245
33.5260	267
33.5334	260
33.5408	301
33.5482	296
33.5556	300
33.5630	306
33.5704	296
33.5778	303
33.5852	277
33.5926	313
33.5999	287
33.6073	286
33.6147	285
33.6221	271
33.6295	238
33.6369	219
33.6443	237
33.6517	205
33.6591	246
33.6665	207
33.6739	158
33.6813	186
33.6887	149
33.6961	152
33.7035	148
33.7109	146
33.7183	117
33.7257	121
33.7331	112
33.7405	94
33.7479	85
33.7552	81
33.7626	101
33.7700	76
33.7774	91
33.7848	74
33.7922	93
33.7996	74
33.8070	89
33.8144	95
33.8218	99
33.8292	82
33.8366	93
33.8440	74
33.8514	79
33.8588	77
33.8662	84
33.8736	96
33.8810	80
33.8884	84
33.8958	99
33.9032	84
33.9105	77
33.9179	92
33.9253	96
33.9327	94
33.9401	84
33.9475	94
33.9549	98
33.9623	105
33.9697	98
33.9771	88
33.9845	110
33.9919	92
33.9993	91
34.0067	89
34.0141	96
34.0215	121
34.0289	91
34.0363	98
34.0437	126
34.0511	94
34.0585	124
34.0658	81
34.0732	119
34.0806	101
34.0880	115
34.0954	97
34.1028	111
34.1102	110
34.1176	100
34.1250	100
34.1324	85
34.1398	79
34.1472	85
34.1546	90
34.1620	81
34.1694	88
34.1768	82
34.1842	78
34.1916	107
34.1990	81
34.2064	82
34.2138	82
34.2211	80
34.2285	85
34.2359	69
34.2433	70
34.2507	69
34.2581	82
34.2655	58
34.2729	67
34.2803	70
34.2877	80
34.2951	68
34.3025	71
34.3099	75
34.3173	81
34.3247	74
34.3321	66
34.3395	62
34.3469	66
34.3543	70
34.3617	73
34.3691	70
34.3764	75
34.3838	72
34.3912	75
34.3986	62
34.4060	71
34.4134	73
34.4208	71
34.4282	77
34.4356	60
34.4430	74
34.4504	68
34.4578	75
34.4652	67
34.4726	63
34.4800	72
34.4874	81
34.4948	78
34.5022	70
34.5096	54
34.5170	68
34.5244	72
34.5317	66
34.5391	62
34.5465	64
34.5539	66
34.5613	74
34.5687	86
34.5761	65
34.5835	50
34.5909	56
34.5983	69
34.6057	75
34.6131	71
34.6205	63
34.6279	68
34.6353	95
34.6427	80
34.6501	68
34.6575	79
34.6649	92
34.6723	88
34.6797	79
34.6870	63
34.6944	68
34.7018	56
34.7092	79
34.7166	73
34.7240	75
34.7314	68
34.7388	69
34.7462	73
34.7536	74
34.7610	67
34.7684	60
34.7758	73
34.7832	77
34.7906	68
34.7980	67
34.8054	69
34.8128	72
34.8202	73
34.8276	77
34.8350	69
34.8423	79
34.8497	94
34.8571	70
34.8645	68
34.8719	61
34.8793	90
34.8867	76
34.8941	80
34.9015	74
34.9089	76
34.9163	98
34.9237	85
34.9311	99
34.9385	76
34.9459	83
34.9533	100
34.9607	91
34.9681	99
34.9755	109
34.9829	117
34.9903	95
34.9977	111
35.0050	106
35.0124	116
35.0198	90
35.0272	104
35.0346	99
35.0420	95
35.0494	94
35.0568	99
35.0642	93
35.0716	102
35.0790	107
35.0864	114
35.0938	116
35.1012	97
35.1086	115
35.1160	97
35.1234	113
35.1308	119
35.1382	112
35.1456	99
35.1530	111
35.1603	129
35.1677	114
35.1751	126
35.1825	121
35.1899	141
35.1973	107
35.2047	124
35.2121	117
35.2195	110
35.2269	116
35.2343	101
35.2417	129
35.2491	87
35.2565	85
35.2639	105
35.2713	102
35.2787	107
35.2861	90
35.2935	94
35.3009	90
35.3083	83
35.3156	94
35.3230	85
35.3304	103
35.3378	78
35.3452	85
35.3526	95
35.3600	87
35.3674	86
35.3748	85
35.3822	91
35.3896	89
35.3970	93
35.4044	90
35.4118	91
35.4192	100
35.4266	95
35.4340	131
35.4414	115
35.4488	128
35.4562	141
35.4636	150
35.4709	154
35.4783	154
35.4857	148
35.4931	156
35.5005	147
35.5079	137
35.5153	136
35.5227	122
35.5301	106
35.5375	107
35.5449	122
35.5523	119
35.5597	123
35.5671	124
35.5745	122
35.5819	134
35.5893	119
35.5967	120
35.6041	113
35.6115	105
35.6189	91
35.6262	87
35.6336	96
35.6410	90
35.6484	68
35.6558	89
35.6632	76
35.6706	94
35.6780	77
35.6854	84
35.6928	92
35.7002	49
35.7076	78
35.7150	78
35.7224	75
35.7298	97
35.7372	99
35.7446	73
35.7520	84
35.7594	67
35.7668	77
35.7742	70
35.7815	89
35.7889	80
35.7963	82
35.8037	73
35.8111	95
35.8185	73
35.8259	68
35.8333	93
35.8407	95
35.8481	99
35.8555	98
35.8629	87
35.8703	71
35.8777	106
35.8851	105
35.8925	105
35.8999	106
35.9073	95
35.9147	109
35.9221	100
35.9295	123
35.9368	106
35.9442	112
35.9516	118
35.9590	119
35.9664	130
35.9738	141
35.9812	154
35.9886	156
35.9960	166
36.0034	227
36.0108	215
36.0182	204
36.0256	270
36.0330	315
36.0404	305
36.0478	310
36.0552	307
36.0626	291
36.0700	251
36.0774	282
36.0848	305
36.0921	254
36.0995	229
36.1069	227
36.1143	237
36.1217	250
36.1291	253
36.1365	263
36.1439	280
36.1513	267
36.1587	242
36.1661	240
36.1735	226
36.1809	191
36.1883	190
36.1957	198
36.2031	184
36.2105	164
36.2179	162
36.2253	161
36.2327	131
36.2401	143
36.2474	119
36.2548	135
36.2622	132
36.2696	148
36.2770	145
36.2844	125
36.2918	151
36.2992	134
36.3066	169
36.3140	167
36.3214	177
36.3288	158
36.3362	177
36.3436	147
36.3510	141
36.3584	148
36.3658	137
36.3732	141
36.3806	125
36.3880	124
36.3954	108
36.4027	106
36.4101	110
36.4175	114
36.4249	132
36.4323	140
36.4397	128
36.4471	116
36.4545	108
36.4619	120
36.4693	88
36.4767	108
36.4841	109
36.4915	97
36.4989	82
36.5063	88
36.5137	85
36.5211	68
36.5285	74
36.5359	83
36.5433	73
36.5507	80
36.5580	72
36.5654	82
36.5728	69
36.5802	94
36.5876	71
36.5950	89
36.6024	86
36.6098	90
36.6172	72
36.6246	68
36.6320	68
36.6394	86
36.6468	71
36.6542	89
36.6616	59
36.6690	78
36.6764	74
36.6838	67
36.6912	69
36.6986	59
36.7060	58
36.7134	67
36.7207	69
36.7281	91
36.7355	64
36.7429	85
36.7503	76
36.7577	70
36.7651	77
36.7725	84
36.7799	67
36.7873	69
36.7947	72
36.8021	94
36.8095	81
36.8169	66
36.8243	63
36.8317	72
36.8391	80
36.8465	80
36.8539	67
36.8613	70
36.8687	88
36.8760	58
36.8834	69
36.8908	71
36.8982	63
36.9056	70
36.9130	52
36.9204	65
36.9278	80
36.9352	71
36.9426	64
36.9500	74
36.9574	71
36.9648	72
36.9722	70
36.9796	70
36.9870	72
36.9944	80
37.0018	67
37.0092	77
37.0166	74
37.0240	84
37.0313	84
37.0387	75
37.0461	77
37.0535	83
37.0609	71
37.0683	74
37.0757	77
37.0831	80
37.0905	77
37.0979	85
37.1053	93
37.1127	66
37.1201	87
37.1275	98
37.1349	105
37.1423	117
37.1497	93
37.1571	95
37.1645	100
37.1719	95
37.1793	99
37.1866	96
37.1940	85
37.2014	95
37.2088	91
37.2162	84
37.2236	89
37.2310	79
37.2384	83
37.2458	81
37.2532	100
37.2606	86
37.2680	83
37.2754	86
37.2828	86
37.2902	80
37.2976	94
37.3050	71
37.3124	84
37.3198	69
37.3272	83
37.3346	87
37.3419	76
37.3493	72
37.3567	76
37.3641	78
37.3715	76
37.3789	76
37.3863	74
37.3937	75
37.4011	83
37.4085	76
37.4159	68
37.4233	73
37.4307	77
37.4381	74
37.4455	71
37.4529	55
37.4603	75
37.4677	80
37.4751	72
37.4825	81
37.4899	86
37.4972	79
37.5046	76
37.5120	78
37.5194	82
37.5268	81
37.5342	80
37.5416	88
37.5490	90
37.5564	93
37.5638	94
37.5712	106
37.5786	99
37.5860	111
37.5934	96
37.6008	114
37.6082	104
37.6156	113
37.6230	121
37.6304	139
37.6378	151
37.6452	132
37.6525	142
37.6599	188
37.6673	156
37.6747	146
37.6821	149
37.6895	164
37.6969	159
37.7043	160
37.7117	167
37.7191	178
37.7265	149
37.7339	153
37.7413	145
37.7487	144
37.7561	136
37.7635	134
37.7709	118
37.7783	111
37.7857	134
37.7931	128
37.8005	129
37.8078	110
37.8152	104
37.8226	113
37.8300	110
37.8374	89
37.8448	96
37.8522	114
37.8596	84
37.8670	76
37.8744	84
37.8818	94
37.8892	82
37.8966	62
37.9040	92
37.9114	69
37.9188	92
37.9262	75
37.9336	84
37.9410	69
37.9484	75
37.9558	81
37.9631	86
37.9705	75
37.9779	68
37.9853	70
37.9927	88
38.0001	67
38.0075	61
38.0149	98
38.0223	84
38.0297	75
38.0371	87
38.0445	74
38.0519	85
38.0593	84
38.0667	86
38.0741	67
38.0815	74
38.0889	70
38.0963	65
38.1037	79
38.1111	64
38.1184	76
38.1258	70
38.1332	73
38.1406	65
38.1480	54
38.1554	78
38.1628	85
38.1702	85
38.1776	86
38.1850	71
38.1924	83
38.1998	83
38.2072	83
38.2146	80
38.2220	82
38.2294	74
38.2368	85
38.2442	77
38.2516	97
38.2590	92
38.2664	98
38.2738	87
38.2811	91
38.2885	94
38.2959	81
38.3033	105
38.3107	94
38.3181	97
38.3255	96
38.3329	89
38.3403	101
38.3477	94
38.3551	95
38.3625	93
38.3699	94
38.3773	95
38.3847	93
38.3921	82
38.3995	84
38.4069	99
38.4143	98
38.4217	100
38.4291	86
38.4364	92
38.4438	87
38.4512	113
38.4586	91
38.4660	114
38.4734	93
38.4808	96
38.4882	101
38.4956	93
38.5030	97
38.5104	108
38.5178	93
38.5252	98
38.5326	108
38.5400	79
38.5474	79
38.5548	77
38.5622	95
38.5696	82
38.5770	83
38.5844	91
38.5917	88
38.5991	89
38.6065	94
38.6139	75
38.6213	66
38.6287	94
38.6361	86
38.6435	78
38.6509	81
38.6583	90
38.6657	69
38.6731	72
38.6805	74
38.6879	93
38.6953	83
38.7027	66
38.7101	89
38.7175	86
38.7249	74
38.7323	63
38.7397	70
38.7470	69
38.7544	88
38.7618	71
38.7692	77
38.7766	89
38.7840	79
38.7914	63
38.7988	76
38.8062	72
38.8136	83
38.8210	91
38.8284	77
38.8358	86
38.8432	72
38.8506	79
38.8580	86
38.8654	69
38.8728	71
38.8802	71
38.8876	80
38.8950	88
38.9023	84
38.9097	60
38.9171	80
38.9245	94
38.9319	80
38.9393	69
38.9467	81
38.9541	97
38.9615	82
38.9689	58
38.9763	84
38.9837	85
38.9911	68
38.9985	86
39.0059	71
39.0133	83
39.0207	68
39.0281	69
39.0355	78
39.0429	96
39.0503	78
39.0576	87
39.0650	107
39.0724	93
39.0798	102
39.0872	93
39.0946	76
39.1020	81
39.1094	98
39.1168	113
39.1242	80
39.1316	105
39.1390	105
39.1464	96
39.1538	103
39.1612	93
39.1686	97
39.1760	112
39.1834	96
39.1908	116
39.1982	123
39.2056	134
39.2129	170
39.2203	153
39.2277	171
39.2351	191
39.2425	204
39.2499	219
39.2573	227
39.2647	267
39.2721	235
39.2795	292
39.2869	310
39.2943	284
39.3017	338
39.3091	300
39.3165	252
39.3239	244
39.3313	276
39.3387	250
39.3461	257
39.3535	265
39.3609	240
39.3682	249
39.3756	238
39.3830	268
39.3904	300
39.3978	274
39.4052	258
39.4126	253
39.4200	234
39.4274	232
39.4348	201
39.4422	223
39.4496	208
39.4570	193
39.4644	190
39.4718	190
39.4792	189
39.4866	171
39.4940	187
39.5014	193
39.5088	169
39.5162	164
39.5235	173
39.5309	170
39.5383	158
39.5457	151
39.5531	145
39.5605	137
39.5679	128
39.5753	119
39.5827	112
39.5901	115
39.5975	113
39.6049	96
39.6123	118
39.6197	101
39.6271	111
39.6345	85
39.6419	99
39.6493	90
39.6567	107
39.6641	113
39.6715	92
39.6788	111
39.6862	99
39.6936	97
39.7010	111
39.7084	98
39.7158	88
39.7232	89
39.7306	76
39.7380	68
39.7454	80
39.7528	78
39.7602	81
39.7676	97
39.7750	87
39.7824	101
39.7898	96
39.7972	98
39.8046	94
39.8120	100
39.8194	109
39.8268	87
39.8342	87
39.8415	91
39.8489	77
39.8563	96
39.8637	87
39.8711	96
39.8785	88
39.8859	89
39.8933	84
39.9007	78
39.9081	80
39.9155	94
39.9229	93
39.9303	78
39.9377	89
39.9451	78
39.9525	67
39.9599	82
39.9673	72
39.9747	70
39.9821	86
39.9895	85
39.9968	67
