2.0000	150
2.0074	163
2.0148	165
2.0222	165
2.0296	163
2.0370	185
2.0444	188
2.0518	162
2.0592	176
2.0666	154
2.0740	188
2.0813	167
2.0887	162
2.0961	168
2.1035	170
2.1109	163
2.1183	161
2.1257	182
2.1331	167
2.1405	178
2.1479	182
2.1553	170
2.1627	171
2.1701	165
2.1775	155
2.1849	171
2.1923	184
2.1997	190
2.2071	179
2.2145	188
2.2219	162
2.2293	176
2.2366	172
2.2440	187
2.2514	172
2.2588	191
2.2662	204
2.2736	168
2.2810	170
2.2884	177
2.2958	189
2.3032	172
2.3106	169
2.3180	161
2.3254	152
2.3328	186
2.3402	143
2.3476	164
2.3550	156
2.3624	178
2.3698	160
2.3772	172
2.3846	169
2.3919	184
2.3993	171
2.4067	179
2.4141	158
2.4215	197
2.4289	165
2.4363	156
2.4437	172
2.4511	180
2.4585	164
2.4659	190
2.4733	168
2.4807	168
2.4881	165
2.4955	159
2.5029	159
2.5103	161
2.5177	164
2.5251	154
2.5325	175
2.5399	165
2.5472	161
2.5546	174
2.5620	182
2.5694	169
2.5768	186
2.5842	171
2.5916	178
2.5990	141
2.6064	150
2.6138	155
2.6212	135
2.6286	162
2.6360	187
2.6434	153
2.6508	186
2.6582	171
2.6656	151
2.6730	189
2.6804	167
2.6878	148
2.6952	158
2.7025	147
2.7099	160
2.7173	164
2.7247	164
2.7321	170
2.7395	159
2.7469	165
2.7543	139
2.7617	147
2.7691	157
2.7765	186
2.7839	158
2.7913	147
2.7987	142
2.8061	142
2.8135	182
2.8209	163
2.8283	150
2.8357	128
2.8431	154
2.8505	165
2.8579	139
2.8652	139
2.8726	144
2.8800	156
2.8874	159
2.8948	118
2.9022	134
2.9096	129
2.9170	166
2.9244	130
2.9318	156
2.9392	138
2.9466	151
2.9540	141
2.9614	151
2.9688	134
2.9762	138
2.9836	148
2.9910	140
2.9984	138
3.0058	165
3.0132	140
3.0205	157
3.0279	152
3.0353	163
3.0427	151
3.0501	156
3.0575	150
3.0649	158
3.0723	153
3.0797	131
3.0871	150
3.0945	125
3.1019	136
3.1093	152
3.1167	154
3.1241	136
3.1315	142
3.1389	132
3.1463	120
3.1537	119
3.1611	161
3.1685	141
3.1758	151
3.1832	132
3.1906	135
3.1980	162
3.2054	154
3.2128	124
3.2202	129
3.2276	149
3.2350	160
3.2424	141
3.2498	136
3.2572	156
3.2646	143
3.2720	129
3.2794	135
3.2868	140
3.2942	132
3.3016	135
3.3090	124
3.3164	145
3.3238	136
3.3311	139
3.3385	128
3.3459	132
3.3533	137
3.3607	125
3.3681	129
3.3755	131
3.3829	130
3.3903	131
3.3977	138
3.4051	152
3.4125	129
3.4199	126
3.4273	137
3.4347	121
3.4421	136
3.4495	132
3.4569	142
3.4643	157
3.4717	141
3.4791	137
3.4864	125
3.4938	140
3.5012	144
3.5086	111
3.5160	103
3.5234	126
3.5308	135
3.5382	123
3.5456	117
3.5530	129
3.5604	141
3.5678	137
3.5752	135
3.5826	122
3.5900	127
3.5974	133
3.6048	130
3.6122	121
3.6196	141
3.6270	129
3.6344	159
3.6417	148
3.6491	129
3.6565	136
3.6639	135
3.6713	101
3.6787	145
3.6861	138
3.6935	131
3.7009	131
3.7083	123
3.7157	132
3.7231	122
3.7305	124
3.7379	121
3.7453	104
3.7527	127
3.7601	120
3.7675	138
3.7749	120
3.7823	130
3.7897	135
3.7970	132
3.8044	119
3.8118	118
3.8192	140
3.8266	146
3.8340	127
3.8414	127
3.8488	118
3.8562	118
3.8636	114
3.8710	120
3.8784	116
3.8858	123
3.8932	110
3.9006	111
3.9080	119
3.9154	125
3.9228	111
3.9302	112
3.9376	117
3.9450	106
3.9523	124
3.9597	125
3.9671	121
3.9745	125
3.9819	106
3.9893	107
3.9967	141
4.0041	113
4.0115	127
4.0189	103
4.0263	101
4.0337	122
4.0411	102
4.0485	128
4.0559	111
4.0633	123
4.0707	117
4.0781	125
4.0855	96
4.0929	116
4.1003	96
4.1076	115
4.1150	96
4.1224	98
4.1298	110
4.1372	148
4.1446	115
4.1520	113
4.1594	113
4.1668	130
4.1742	114
4.1816	125
4.1890	102
4.1964	98
4.2038	118
4.2112	100
4.2186	127
4.2260	111
4.2334	103
4.2408	96
4.2482	117
4.2556	110
4.2629	118
4.2703	89
4.2777	98
4.2851	95
4.2925	87
4.2999	98
4.3073	90
4.3147	93
4.3221	108
4.3295	99
4.3369	94
4.3443	98
4.3517	90
4.3591	111
4.3665	91
4.3739	99
4.3813	119
4.3887	88
4.3961	106
4.4035	96
4.4109	108
4.4183	95
4.4256	101
4.4330	93
4.4404	110
4.4478	112
4.4552	98
4.4626	101
4.4700	90
4.4774	100
4.4848	87
4.4922	105
4.4996	104
4.5070	88
4.5144	84
4.5218	85
4.5292	89
4.5366	116
4.5440	108
4.5514	92
4.5588	110
4.5662	106
4.5736	100
4.5809	100
4.5883	94
4.5957	85
4.6031	97
4.6105	94
4.6179	109
4.6253	79
4.6327	110
4.6401	90
4.6475	94
4.6549	100
4.6623	75
4.6697	96
4.6771	86
4.6845	114
4.6919	74
4.6993	105
4.7067	92
4.7141	84
4.7215	74
4.7289	84
4.7362	79
4.7436	86
4.7510	75
4.7584	82
4.7658	83
4.7732	92
4.7806	91
4.7880	92
4.7954	83
4.8028	101
4.8102	94
4.8176	107
4.8250	96
4.8324	92
4.8398	88
4.8472	90
4.8546	75
4.8620	100
4.8694	92
4.8768	112
4.8842	91
4.8915	89
4.8989	80
4.9063	73
4.9137	84
4.9211	91
4.9285	85
4.9359	90
4.9433	90
4.9507	79
4.9581	92
4.9655	85
4.9729	96
4.9803	84
4.9877	81
4.9951	91
5.0025	77
5.0099	85
5.0173	95
5.0247	82
5.0321	94
5.0395	94
5.0468	85
5.0542	73
5.0616	93
5.0690	84
5.0764	59
5.0838	72
5.0912	82
5.0986	83
5.1060	76
5.1134	80
5.1208	90
5.1282	98
5.1356	85
5.1430	89
5.1504	88
5.1578	104
5.1652	81
5.1726	69
5.1800	81
5.1874	78
5.1948	80
5.2021	65
5.2095	70
5.2169	67
5.2243	69
5.2317	83
5.2391	91
5.2465	72
5.2539	103
5.2613	69
5.2687	77
5.2761	80
5.2835	69
5.2909	68
5.2983	91
5.3057	86
5.3131	80
5.3205	80
5.3279	89
5.3353	77
5.3427	96
5.3501	78
5.3574	74
5.3648	59
5.3722	62
5.3796	79
5.3870	85
5.3944	79
5.4018	74
5.4092	84
5.4166	67
5.4240	80
5.4314	67
5.4388	96
5.4462	87
5.4536	90
5.4610	80
5.4684	83
5.4758	98
5.4832	99
5.4906	87
5.4980	66
5.5054	82
5.5127	91
5.5201	78
5.5275	89
5.5349	77
5.5423	71
5.5497	70
5.5571	90
5.5645	86
5.5719	76
5.5793	72
5.5867	93
5.5941	90
5.6015	65
5.6089	72
5.6163	76
5.6237	74
5.6311	85
5.6385	56
5.6459	72
5.6533	89
5.6607	76
5.6680	68
5.6754	66
5.6828	88
5.6902	75
5.6976	84
5.7050	86
5.7124	80
5.7198	62
5.7272	71
5.7346	73
5.7420	84
5.7494	85
5.7568	89
5.7642	70
5.7716	74
5.7790	57
5.7864	80
5.7938	76
5.8012	81
5.8086	92
5.8160	79
5.8233	84
5.8307	76
5.8381	81
5.8455	74
5.8529	72
5.8603	86
5.8677	81
5.8751	76
5.8825	73
5.8899	83
5.8973	74
5.9047	85
5.9121	77
5.9195	64
5.9269	77
5.9343	78
5.9417	62
5.9491	81
5.9565	65
5.9639	81
5.9713	74
5.9786	64
5.9860	73
5.9934	83
6.0008	67
6.0082	82
6.0156	72
6.0230	72
6.0304	77
6.0378	68
6.0452	85
6.0526	65
6.0600	76
6.0674	104
6.0748	76
6.0822	71
6.0896	81
6.0970	62
6.1044	89
6.1118	70
6.1192	70
6.1266	75
6.1340	61
6.1413	80
6.1487	80
6.1561	75
6.1635	74
6.1709	76
6.1783	62
6.1857	73
6.1931	59
6.2005	74
6.2079	57
6.2153	77
6.2227	59
6.2301	66
6.2375	78
6.2449	100
6.2523	81
6.2597	77
6.2671	78
6.2745	62
6.2819	68
6.2893	67
6.2966	73
6.3040	71
6.3114	84
6.3188	71
6.3262	63
6.3336	62
6.3410	69
6.3484	61
6.3558	63
6.3632	67
6.3706	69
6.3780	75
6.3854	82
6.3928	85
6.4002	64
6.4076	68
6.4150	74
6.4224	70
6.4298	81
6.4372	54
6.4446	75
6.4519	80
6.4593	71
6.4667	72
6.4741	81
6.4815	74
6.4889	59
6.4963	70
6.5037	77
6.5111	84
6.5185	73
6.5259	57
6.5333	65
6.5407	72
6.5481	81
6.5555	71
6.5629	64
6.5703	76
6.5777	60
6.5851	55
6.5925	64
6.5999	65
6.6072	69
6.6146	52
6.6220	81
6.6294	72
6.6368	65
6.6442	79
6.6516	93
6.6590	71
6.6664	70
6.6738	58
6.6812	77
6.6886	82
6.6960	65
6.7034	72
6.7108	73
6.7182	58
6.7256	85
6.7330	75
6.7404	74
6.7478	66
6.7552	63
6.7625	79
6.7699	64
6.7773	63
6.7847	56
6.7921	72
6.7995	90
6.8069	79
6.8143	62
6.8217	76
6.8291	66
6.8365	70
6.8439	64
6.8513	61
6.8587	60
6.8661	77
6.8735	81
6.8809	64
6.8883	84
6.8957	83
6.9031	77
6.9105	79
6.9178	58
6.9252	57
6.9326	57
6.9400	64
6.9474	60
6.9548	66
6.9622	80
6.9696	57
6.9770	64
6.9844	88
6.9918	54
6.9992	87
7.0066	55
7.0140	61
7.0214	68
7.0288	70
7.0362	83
7.0436	59
7.0510	57
7.0584	73
7.0658	66
7.0731	55
7.0805	69
7.0879	63
7.0953	75
7.1027	73
7.1101	74
7.1175	73
7.1249	67
7.1323	92
7.1397	65
7.1471	62
7.1545	77
7.1619	68
7.1693	66
7.1767	67
7.1841	80
7.1915	74
7.1989	73
7.2063	81
7.2137	65
7.2211	54
7.2284	60
7.2358	63
7.2432	71
7.2506	65
7.2580	61
7.2654	76
7.2728	78
7.2802	86
7.2876	66
7.2950	68
7.3024	62
7.3098	82
7.3172	57
7.3246	70
7.3320	86
7.3394	62
7.3468	71
7.3542	66
7.3616	68
7.3690	74
7.3764	67
7.3837	77
7.3911	71
7.3985	59
7.4059	71
7.4133	65
7.4207	57
7.4281	68
7.4355	78
7.4429	70
7.4503	60
7.4577	69
7.4651	48
7.4725	64
7.4799	68
7.4873	68
7.4947	83
7.5021	72
7.5095	68
7.5169	66
7.5243	72
7.5317	69
7.5390	69
7.5464	68
7.5538	76
7.5612	83
7.5686	75
7.5760	71
7.5834	67
7.5908	85
7.5982	77
7.6056	60
7.6130	67
7.6204	74
7.6278	84
7.6352	78
7.6426	72
7.6500	86
7.6574	89
7.6648	72
7.6722	70
7.6796	75
7.6870	69
7.6944	73
7.7017	79
7.7091	76
7.7165	88
7.7239	83
7.7313	96
7.7387	76
7.7461	82
7.7535	69
7.7609	66
7.7683	72
7.7757	75
7.7831	74
7.7905	66
7.7979	75
7.8053	72
7.8127	77
7.8201	76
7.8275	79
7.8349	70
7.8423	64
7.8497	71
7.8570	66
7.8644	71
7.8718	87
7.8792	73
7.8866	80
7.8940	74
7.9014	68
7.9088	64
7.9162	75
7.9236	63
7.9310	72
7.9384	67
7.9458	84
7.9532	72
7.9606	86
7.9680	85
7.9754	65
7.9828	82
7.9902	82
7.9976	74
8.0050	93
8.0123	75
8.0197	93
8.0271	79
8.0345	75
8.0419	70
8.0493	82
8.0567	80
8.0641	81
8.0715	91
8.0789	77
8.0863	102
8.0937	92
8.1011	98
8.1085	70
8.1159	89
8.1233	74
8.1307	104
8.1381	106
8.1455	77
8.1529	113
8.1603	102
8.1676	108
8.1750	100
8.1824	114
8.1898	107
8.1972	112
8.2046	107
8.2120	124
8.2194	113
8.2268	144
8.2342	147
8.2416	153
8.2490	127
8.2564	161
8.2638	168
8.2712	174
8.2786	196
8.2860	199
8.2934	175
8.3008	213
8.3082	197
8.3156	229
8.3229	251
8.3303	267
8.3377	272
8.3451	314
8.3525	337
8.3599	336
8.3673	351
8.3747	397
8.3821	407
8.3895	502
8.3969	534
8.4043	616
8.4117	643
8.4191	717
8.4265	839
8.4339	938
8.4413	1072
8.4487	1175
8.4561	1352
8.4635	1636
8.4709	1938
8.4782	2332
8.4856	2736
8.4930	3350
8.5004	4152
8.5078	4956
8.5152	5510
8.5226	6126
8.5300	6199
8.5374	6120
8.5448	5408
8.5522	4602
8.5596	3664
8.5670	2775
8.5744	2051
8.5818	1480
8.5892	1112
8.5966	740
8.6040	550
8.6114	440
8.6188	338
8.6262	284
8.6335	294
8.6409	263
8.6483	230
8.6557	210
8.6631	212
8.6705	185
8.6779	220
8.6853	187
8.6927	173
8.7001	167
8.7075	161
8.7149	144
8.7223	160
8.7297	165
8.7371	165
8.7445	129
8.7519	128
8.7593	136
8.7667	165
8.7741	141
8.7815	130
8.7888	137
8.7962	136
8.8036	138
8.8110	132
8.8184	131
8.8258	96
8.8332	129
8.8406	118
8.8480	152
8.8554	127
8.8628	123
8.8702	110
8.8776	110
8.8850	133
8.8924	119
8.8998	120
8.9072	107
8.9146	123
8.9220	126
8.9294	115
8.9368	106
8.9441	134
8.9515	109
8.9589	98
8.9663	111
8.9737	116
8.9811	124
8.9885	103
8.9959	106
9.0033	117
9.0107	128
9.0181	108
9.0255	120
9.0329	115
9.0403	112
9.0477	105
9.0551	111
9.0625	93
9.0699	102
9.0773	120
9.0847	101
9.0921	111
9.0994	99
9.1068	97
9.1142	96
9.1216	117
9.1290	110
9.1364	104
9.1438	86
9.1512	102
9.1586	101
9.1660	97
9.1734	94
9.1808	97
9.1882	100
9.1956	101
9.2030	95
9.2104	85
9.2178	105
9.2252	100
9.2326	104
9.2400	112
9.2474	93
9.2548	99
9.2621	89
9.2695	108
9.2769	99
9.2843	86
9.2917	107
9.2991	101
9.3065	93
9.3139	102
9.3213	91
9.3287	96
9.3361	95
9.3435	82
9.3509	85
9.3583	99
9.3657	103
9.3731	81
9.3805	85
9.3879	83
9.3953	88
9.4027	85
9.4101	95
9.4174	95
9.4248	102
9.4322	87
9.4396	85
9.4470	85
9.4544	85
9.4618	86
9.4692	90
9.4766	74
9.4840	94
9.4914	88
9.4988	98
9.5062	78
9.5136	84
9.5210	94
9.5284	88
9.5358	93
9.5432	86
9.5506	89
9.5580	81
9.5654	96
9.5727	102
9.5801	87
9.5875	94
9.5949	86
9.6023	97
9.6097	87
9.6171	95
9.6245	72
9.6319	88
9.6393	81
9.6467	77
9.6541	91
9.6615	103
9.6689	86
9.6763	75
9.6837	88
9.6911	91
9.6985	79
9.7059	87
9.7133	100
9.7207	92
9.7280	87
9.7354	95
9.7428	88
9.7502	79
9.7576	103
9.7650	79
9.7724	85
9.7798	91
9.7872	86
9.7946	83
9.8020	88
9.8094	70
9.8168	93
9.8242	70
9.8316	79
9.8390	77
9.8464	83
9.8538	104
9.8612	91
9.8686	84
9.8760	89
9.8833	85
9.8907	70
9.8981	85
9.9055	75
9.9129	70
9.9203	79
9.9277	88
9.9351	95
9.9425	83
9.9499	83
9.9573	78
9.9647	79
9.9721	69
9.9795	83
9.9869	79
9.9943	87
10.0017	76
10.0091	86
10.0165	77
10.0239	84
10.0313	67
10.0386	71
10.0460	86
10.0534	87
10.0608	70
10.0682	82
10.0756	75
10.0830	68
10.0904	82
10.0978	68
10.1052	74
10.1126	84
10.1200	88
10.1274	87
10.1348	93
10.1422	74
10.1496	78
10.1570	86
10.1644	80
10.1718	88
10.1792	82
10.1866	76
10.1939	67
10.2013	74
10.2087	72
10.2161	81
10.2235	91
10.2309	80
10.2383	72
10.2457	92
10.2531	76
10.2605	74
10.2679	94
10.2753	83
10.2827	82
10.2901	76
10.2975	83
10.3049	81
10.3123	81
10.3197	80
10.3271	92
10.3345	82
10.3419	89
10.3492	80
10.3566	79
10.3640	78
10.3714	74
10.3788	65
10.3862	78
10.3936	75
10.4010	93
10.4084	74
10.4158	73
10.4232	68
10.4306	75
10.4380	83
10.4454	85
10.4528	75
10.4602	66
10.4676	67
10.4750	80
10.4824	84
10.4898	73
10.4972	79
10.5045	97
10.5119	84
10.5193	75
10.5267	80
10.5341	74
10.5415	73
10.5489	95
10.5563	72
10.5637	79
10.5711	78
10.5785	70
10.5859	63
10.5933	70
10.6007	77
10.6081	68
10.6155	87
10.6229	71
10.6303	73
10.6377	71
10.6451	65
10.6525	70
10.6598	74
10.6672	87
10.6746	76
10.6820	89
10.6894	76
10.6968	77
10.7042	73
10.7116	67
10.7190	68
10.7264	70
10.7338	75
10.7412	61
10.7486	72
10.7560	75
10.7634	83
10.7708	75
10.7782	66
10.7856	75
10.7930	90
10.8004	77
10.8078	95
10.8151	88
10.8225	74
10.8299	74
10.8373	72
10.8447	66
10.8521	59
10.8595	66
10.8669	74
10.8743	66
10.8817	70
10.8891	70
10.8965	74
10.9039	70
10.9113	77
10.9187	60
10.9261	77
10.9335	66
10.9409	67
10.9483	77
10.9557	87
10.9631	73
10.9705	65
10.9778	87
10.9852	61
10.9926	71
11.0000	84
11.0074	75
11.0148	91
11.0222	64
11.0296	73
11.0370	85
11.0444	70
11.0518	80
11.0592	75
11.0666	88
11.0740	78
11.0814	83
11.0888	67
11.0962	86
11.1036	78
11.1110	60
11.1184	73
11.1258	85
11.1331	59
11.1405	77
11.1479	85
11.1553	65
11.1627	81
11.1701	100
11.1775	70
11.1849	69
11.1923	88
11.1997	82
11.2071	88
11.2145	82
11.2219	82
11.2293	85
11.2367	77
11.2441	76
11.2515	75
11.2589	72
11.2663	65
11.2737	80
11.2811	80
11.2884	78
11.2958	90
11.3032	81
11.3106	98
11.3180	79
11.3254	82
11.3328	81
11.3402	93
11.3476	77
11.3550	76
11.3624	96
11.3698	93
11.3772	108
11.3846	86
11.3920	81
11.3994	110
11.4068	77
11.4142	91
11.4216	99
11.4290	103
11.4364	89
11.4437	107
11.4511	103
11.4585	98
11.4659	83
11.4733	95
11.4807	87
11.4881	100
11.4955	115
11.5029	109
11.5103	97
11.5177	94
11.5251	121
11.5325	118
11.5399	130
11.5473	139
11.5547	129
11.5621	138
11.5695	163
11.5769	153
11.5843	178
11.5917	214
11.5990	221
11.6064	205
11.6138	311
11.6212	300
11.6286	373
11.6360	418
11.6434	480
11.6508	547
11.6582	659
11.6656	778
11.6730	964
11.6804	1174
11.6878	1474
11.6952	1680
11.7026	1914
11.7100	2038
11.7174	2011
11.7248	2003
11.7322	1884
11.7396	1624
11.7470	1378
11.7543	1090
11.7617	861
11.7691	632
11.7765	490
11.7839	369
11.7913	278
11.7987	244
11.8061	177
11.8135	165
11.8209	135
11.8283	161
11.8357	134
11.8431	131
11.8505	113
11.8579	113
11.8653	110
11.8727	109
11.8801	90
11.8875	111
11.8949	112
11.9023	119
11.9096	106
11.9170	93
11.9244	112
11.9318	137
11.9392	102
11.9466	121
11.9540	107
11.9614	112
11.9688	105
11.9762	116
11.9836	117
11.9910	107
11.9984	124
12.0058	109
12.0132	126
12.0206	118
12.0280	106
12.0354	112
12.0428	133
12.0502	99
12.0576	85
12.0649	124
12.0723	116
12.0797	114
12.0871	102
12.0945	104
12.1019	108
12.1093	113
12.1167	118
12.1241	121
12.1315	135
12.1389	124
12.1463	124
12.1537	126
12.1611	122
12.1685	138
12.1759	149
12.1833	133
12.1907	151
12.1981	175
12.2055	193
12.2129	194
12.2202	187
12.2276	222
12.2350	238
12.2424	245
12.2498	301
12.2572	314
12.2646	390
12.2720	429
12.2794	407
12.2868	522
12.2942	653
12.3016	746
12.3090	896
12.3164	1078
12.3238	1273
12.3312	1534
12.3386	1725
12.3460	2069
12.3534	2179
12.3608	2287
12.3682	2344
12.3755	2174
12.3829	1873
12.3903	1741
12.3977	1510
12.4051	1230
12.4125	1042
12.4199	772
12.4273	614
12.4347	486
12.4421	406
12.4495	306
12.4569	258
12.4643	228
12.4717	224
12.4791	179
12.4865	179
12.4939	152
12.5013	142
12.5087	140
12.5161	147
12.5235	125
12.5309	116
12.5382	113
12.5456	130
12.5530	110
12.5604	100
12.5678	116
12.5752	110
12.5826	121
12.5900	120
12.5974	131
12.6048	119
12.6122	105
12.6196	105
12.6270	112
12.6344	103
12.6418	115
12.6492	82
12.6566	114
12.6640	100
12.6714	102
12.6788	99
12.6862	106
12.6935	104
12.7009	111
12.7083	85
12.7157	103
12.7231	83
12.7305	103
12.7379	80
12.7453	103
12.7527	103
12.7601	103
12.7675	97
12.7749	121
12.7823	106
12.7897	122
12.7971	117
12.8045	99
12.8119	106
12.8193	118
12.8267	103
12.8341	113
12.8415	99
12.8488	105
12.8562	127
12.8636	106
12.8710	119
12.8784	97
12.8858	116
12.8932	106
12.9006	100
12.9080	94
12.9154	111
12.9228	102
12.9302	96
12.9376	95
12.9450	113
12.9524	113
12.9598	95
12.9672	108
12.9746	104
12.9820	112
12.9894	103
12.9968	87
13.0041	114
13.0115	94
13.0189	114
13.0263	140
13.0337	115
13.0411	108
13.0485	113
13.0559	119
13.0633	138
13.0707	138
13.0781	132
13.0855	158
13.0929	169
13.1003	179
13.1077	176
13.1151	195
13.1225	223
13.1299	205
13.1373	272
13.1447	274
13.1521	304
13.1594	363
13.1668	443
13.1742	498
13.1816	568
13.1890	685
13.1964	834
13.2038	979
13.2112	1249
13.2186	1451
13.2260	1683
13.2334	1807
13.2408	1916
13.2482	1967
13.2556	1819
13.2630	1784
13.2704	1523
13.2778	1257
13.2852	1033
13.2926	817
13.3000	672
13.3074	479
13.3147	403
13.3221	327
13.3295	271
13.3369	233
13.3443	209
13.3517	189
13.3591	187
13.3665	179
13.3739	180
13.3813	138
13.3887	142
13.3961	166
13.4035	137
13.4109	172
13.4183	145
13.4257	148
13.4331	160
13.4405	164
13.4479	131
13.4553	150
13.4627	141
13.4700	135
13.4774	166
13.4848	159
13.4922	153
13.4996	173
13.5070	206
13.5144	191
13.5218	206
13.5292	215
13.5366	231
13.5440	256
13.5514	278
13.5588	290
13.5662	351
13.5736	368
13.5810	434
13.5884	459
13.5958	536
13.6032	651
13.6106	790
13.6180	958
13.6253	1193
13.6327	1306
13.6401	1653
13.6475	1857
13.6549	2359
13.6623	2577
13.6697	2924
13.6771	2993
13.6845	2927
13.6919	2865
13.6993	2575
13.7067	2319
13.7141	1972
13.7215	1638
13.7289	1237
13.7363	964
13.7437	716
13.7511	605
13.7585	439
13.7659	340
13.7733	298
13.7806	265
13.7880	224
13.7954	210
13.8028	190
13.8102	173
13.8176	153
13.8250	155
13.8324	147
13.8398	144
13.8472	138
13.8546	141
13.8620	130
13.8694	133
13.8768	127
13.8842	129
13.8916	120
13.8990	130
13.9064	131
13.9138	120
13.9212	114
13.9286	116
13.9359	135
13.9433	113
13.9507	121
13.9581	137
13.9655	127
13.9729	110
13.9803	117
13.9877	126
13.9951	116
14.0025	113
14.0099	97
14.0173	91
14.0247	106
14.0321	111
14.0395	106
14.0469	91
14.0543	103
14.0617	100
14.0691	105
14.0765	98
14.0839	94
14.0913	100
14.0986	110
14.1060	98
14.1134	96
14.1208	100
14.1282	99
14.1356	100
14.1430	98
14.1504	117
14.1578	105
14.1652	91
14.1726	95
14.1800	100
14.1874	113
14.1948	100
14.2022	111
14.2096	108
14.2170	95
14.2244	100
14.2318	105
14.2392	101
14.2466	105
14.2539	104
14.2613	114
14.2687	82
14.2761	93
14.2835	95
14.2909	109
14.2983	105
14.3057	87
14.3131	101
14.3205	124
14.3279	108
14.3353	124
14.3427	126
14.3501	128
14.3575	125
14.3649	145
14.3723	157
14.3797	169
14.3871	178
14.3945	206
14.4019	191
14.4092	181
14.4166	181
14.4240	165
14.4314	173
14.4388	174
14.4462	137
14.4536	151
14.4610	131
14.4684	106
14.4758	126
14.4832	95
14.4906	93
14.4980	88
14.5054	103
14.5128	87
14.5202	92
14.5276	89
14.5350	81
14.5424	93
14.5498	93
14.5572	89
14.5645	82
14.5719	85
14.5793	80
14.5867	86
14.5941	92
14.6015	85
14.6089	92
14.6163	73
14.6237	87
14.6311	72
14.6385	88
14.6459	83
14.6533	84
14.6607	78
14.6681	72
14.6755	93
14.6829	82
14.6903	77
14.6977	74
14.7051	92
14.7125	93
14.7198	87
14.7272	94
14.7346	73
14.7420	91
14.7494	72
14.7568	79
14.7642	86
14.7716	84
14.7790	90
14.7864	73
14.7938	80
14.8012	65
14.8086	86
14.8160	80
14.8234	86
14.8308	74
14.8382	78
14.8456	90
14.8530	84
14.8604	80
14.8678	79
14.8751	83
14.8825	94
14.8899	78
14.8973	85
14.9047	95
14.9121	86
14.9195	75
14.9269	90
14.9343	80
14.9417	72
14.9491	91
14.9565	78
14.9639	84
14.9713	81
14.9787	93
14.9861	79
14.9935	73
15.0009	75
15.0083	89
15.0157	90
15.0231	94
15.0304	85
15.0378	75
15.0452	60
15.0526	86
15.0600	96
15.0674	79
15.0748	75
15.0822	66
15.0896	73
15.0970	76
15.1044	71
15.1118	68
15.1192	80
15.1266	58
15.1340	71
15.1414	86
15.1488	88
15.1562	78
15.1636	64
15.1710	81
15.1784	85
15.1857	68
15.1931	88
15.2005	75
15.2079	68
15.2153	59
15.2227	69
15.2301	63
15.2375	66
15.2449	65
15.2523	79
15.2597	73
15.2671	77
15.2745	87
15.2819	63
15.2893	73
15.2967	89
15.3041	71
15.3115	79
15.3189	68
15.3263	72
15.3337	75
15.3410	72
15.3484	74
15.3558	71
15.3632	66
15.3706	79
15.3780	77
15.3854	88
15.3928	82
15.4002	68
15.4076	74
15.4150	74
15.4224	82
15.4298	76
15.4372	95
15.4446	74
15.4520	90
15.4594	85
15.4668	60
15.4742	92
15.4816	83
15.4890	108
15.4963	91
15.5037	102
15.5111	80
15.5185	106
15.5259	115
15.5333	97
15.5407	126
15.5481	100
15.5555	120
15.5629	99
15.5703	108
15.5777	109
15.5851	97
15.5925	107
15.5999	94
15.6073	81
15.6147	93
15.6221	87
15.6295	82
15.6369	91
15.6443	75
15.6516	75
15.6590	62
15.6664	73
15.6738	67
15.6812	67
15.6886	67
15.6960	85
15.7034	71
15.7108	70
15.7182	78
15.7256	74
15.7330	73
15.7404	69
15.7478	68
15.7552	65
15.7626	59
15.7700	70
15.7774	61
15.7848	64
15.7922	59
15.7996	64
15.8070	78
15.8143	63
15.8217	69
15.8291	75
15.8365	56
15.8439	61
15.8513	76
15.8587	85
15.8661	62
15.8735	75
15.8809	61
15.8883	70
15.8957	78
15.9031	64
15.9105	54
15.9179	60
15.9253	50
15.9327	62
15.9401	67
15.9475	63
15.9549	69
15.9623	66
15.9696	73
15.9770	69
15.9844	49
15.9918	69
15.9992	61
16.0066	87
16.0140	66
16.0214	55
16.0288	66
16.0362	59
16.0436	60
16.0510	78
16.0584	58
16.0658	77
16.0732	60
16.0806	61
16.0880	60
16.0954	86
16.1028	76
16.1102	91
16.1176	63
16.1249	64
16.1323	85
16.1397	70
16.1471	76
16.1545	70
16.1619	65
16.1693	76
16.1767	74
16.1841	67
16.1915	63
16.1989	56
16.2063	67
16.2137	58
16.2211	68
16.2285	60
16.2359	79
16.2433	70
16.2507	77
16.2581	64
16.2655	65
16.2729	57
16.2802	70
16.2876	63
16.2950	84
16.3024	64
16.3098	68
16.3172	67
16.3246	71
16.3320	77
16.3394	83
16.3468	78
16.3542	52
16.3616	75
16.3690	63
16.3764	71
16.3838	74
16.3912	77
16.3986	92
16.4060	72
16.4134	71
16.4208	71
16.4282	97
16.4355	69
16.4429	74
16.4503	80
16.4577	81
16.4651	90
16.4725	65
16.4799	57
16.4873	76
16.4947	63
16.5021	61
16.5095	89
16.5169	80
16.5243	72
16.5317	93
16.5391	79
16.5465	79
16.5539	73
16.5613	87
16.5687	81
16.5761	84
16.5835	103
16.5908	95
16.5982	87
16.6056	109
16.6130	83
16.6204	90
16.6278	87
16.6352	83
16.6426	94
16.6500	113
16.6574	97
16.6648	98
16.6722	101
16.6796	122
16.6870	128
16.6944	118
16.7018	150
16.7092	136
16.7166	156
16.7240	138
16.7314	173
16.7388	203
16.7461	221
16.7535	283
16.7609	283
16.7683	289
16.7757	345
16.7831	387
16.7905	406
16.7979	394
16.8053	491
16.8127	531
16.8201	536
16.8275	563
16.8349	512
16.8423	505
16.8497	438
16.8571	442
16.8645	364
16.8719	406
16.8793	365
16.8867	336
16.8941	300
16.9014	280
16.9088	253
16.9162	226
16.9236	272
16.9310	273
16.9384	274
16.9458	339
16.9532	370
16.9606	401
16.9680	452
16.9754	546
16.9828	701
16.9902	805
16.9976	978
17.0050	1200
17.0124	1345
17.0198	1472
17.0272	1522
17.0346	1534
17.0420	1497
17.0494	1492
17.0567	1295
17.0641	1146
17.0715	1051
17.0789	901
17.0863	728
17.0937	591
17.1011	510
17.1085	395
17.1159	286
17.1233	230
17.1307	213
17.1381	176
17.1455	153
17.1529	131
17.1603	127
17.1677	131
17.1751	106
17.1825	112
17.1899	100
17.1973	89
17.2047	84
17.2120	111
17.2194	90
17.2268	96
17.2342	94
17.2416	107
17.2490	95
17.2564	76
17.2638	84
17.2712	93
17.2786	96
17.2860	77
17.2934	84
17.3008	76
17.3082	92
17.3156	90
17.3230	74
17.3304	96
17.3378	87
17.3452	71
17.3526	102
17.3600	79
17.3674	85
17.3747	92
17.3821	95
17.3895	98
17.3969	84
17.4043	89
17.4117	70
17.4191	101
17.4265	82
17.4339	88
17.4413	88
17.4487	84
17.4561	92
17.4635	79
17.4709	78
17.4783	80
17.4857	69
17.4931	79
17.5005	78
17.5079	81
17.5153	100
17.5227	76
17.5300	88
17.5374	82
17.5448	77
17.5522	93
17.5596	80
17.5670	71
17.5744	96
17.5818	78
17.5892	108
17.5966	89
17.6040	93
17.6114	70
17.6188	87
17.6262	95
17.6336	88
17.6410	76
17.6484	93
17.6558	117
17.6632	91
17.6706	119
17.6780	96
17.6853	93
17.6927	114
17.7001	135
17.7075	154
17.7149	149
17.7223	156
17.7297	160
17.7371	177
17.7445	199
17.7519	233
17.7593	258
17.7667	277
17.7741	334
17.7815	394
17.7889	412
17.7963	437
17.8037	476
17.8111	576
17.8185	569
17.8259	606
17.8333	677
17.8406	668
17.8480	683
17.8554	707
17.8628	611
17.8702	554
17.8776	514
17.8850	485
17.8924	434
17.8998	436
17.9072	337
17.9146	280
17.9220	291
17.9294	205
17.9368	233
17.9442	180
17.9516	194
17.9590	148
17.9664	139
17.9738	124
17.9812	130
17.9886	121
17.9959	134
18.0033	103
18.0107	119
18.0181	80
18.0255	96
18.0329	104
18.0403	103
18.0477	91
18.0551	109
18.0625	94
18.0699	93
18.0773	98
18.0847	92
18.0921	103
18.0995	86
18.1069	82
18.1143	100
18.1217	92
18.1291	90
18.1365	91
18.1439	91
18.1512	91
18.1586	100
18.1660	82
18.1734	73
18.1808	101
18.1882	100
18.1956	78
18.2030	83
18.2104	81
18.2178	85
18.2252	76
18.2326	87
18.2400	88
18.2474	101
18.2548	77
18.2622	90
18.2696	84
18.2770	85
18.2844	91
18.2918	79
18.2992	97
18.3065	73
18.3139	103
18.3213	85
18.3287	75
18.3361	103
18.3435	115
18.3509	96
18.3583	112
18.3657	103
18.3731	100
18.3805	96
18.3879	107
18.3953	123
18.4027	125
18.4101	115
18.4175	115
18.4249	131
18.4323	133
18.4397	155
18.4471	177
18.4545	192
18.4618	205
18.4692	196
18.4766	247
18.4840	278
18.4914	282
18.4988	379
18.5062	444
18.5136	507
18.5210	568
18.5284	735
18.5358	769
18.5432	936
18.5506	987
18.5580	1062
18.5654	1028
18.5728	1073
18.5802	1012
18.5876	1046
18.5950	1075
18.6024	1084
18.6098	1071
18.6171	1077
18.6245	1081
18.6319	999
18.6393	962
18.6467	887
18.6541	781
18.6615	687
18.6689	621
18.6763	582
18.6837	500
18.6911	449
18.6985	381
18.7059	297
18.7133	259
18.7207	202
18.7281	195
18.7355	185
18.7429	135
18.7503	130
18.7577	135
18.7651	125
18.7724	114
18.7798	114
18.7872	108
18.7946	105
18.8020	94
18.8094	105
18.8168	99
18.8242	90
18.8316	95
18.8390	95
18.8464	89
18.8538	88
18.8612	95
18.8686	74
18.8760	76
18.8834	80
18.8908	88
18.8982	96
18.9056	91
18.9130	71
18.9204	91
18.9278	70
18.9351	104
18.9425	77
18.9499	83
18.9573	89
18.9647	79
18.9721	94
18.9795	71
18.9869	91
18.9943	77
19.0017	77
19.0091	84
19.0165	68
19.0239	90
19.0313	76
19.0387	90
19.0461	81
19.0535	79
19.0609	88
19.0683	86
19.0757	74
19.0831	63
19.0904	73
19.0978	70
19.1052	63
19.1126	76
19.1200	77
19.1274	95
19.1348	70
19.1422	76
19.1496	89
19.1570	79
19.1644	73
19.1718	63
19.1792	83
19.1866	87
19.1940	83
19.2014	61
19.2088	76
19.2162	84
19.2236	82
19.2310	83
19.2384	90
19.2457	67
19.2531	81
19.2605	91
19.2679	79
19.2753	84
19.2827	79
19.2901	67
19.2975	80
19.3049	80
19.3123	92
19.3197	86
19.3271	81
19.3345	89
19.3419	108
19.3493	89
19.3567	97
19.3641	108
19.3715	126
19.3789	128
19.3863	126
19.3937	144
19.4010	151
19.4084	165
19.4158	232
19.4232	232
19.4306	259
19.4380	284
19.4454	285
19.4528	396
19.4602	366
19.4676	357
19.4750	350
19.4824	317
19.4898	265
19.4972	276
19.5046	237
19.5120	220
19.5194	207
19.5268	192
19.5342	163
19.5416	124
19.5490	119
19.5563	122
19.5637	109
19.5711	104
19.5785	91
19.5859	99
19.5933	92
19.6007	73
19.6081	89
19.6155	74
19.6229	77
19.6303	70
19.6377	75
19.6451	89
19.6525	73
19.6599	64
19.6673	81
19.6747	67
19.6821	74
19.6895	96
19.6969	70
19.7043	78
19.7116	73
19.7190	90
19.7264	67
19.7338	76
19.7412	67
19.7486	74
19.7560	78
19.7634	88
19.7708	77
19.7782	85
19.7856	84
19.7930	102
19.8004	90
19.8078	109
19.8152	90
19.8226	107
19.8300	115
19.8374	102
19.8448	86
19.8522	101
19.8596	105
19.8669	82
19.8743	80
19.8817	85
19.8891	71
19.8965	92
19.9039	82
19.9113	68
19.9187	85
19.9261	72
19.9335	75
19.9409	76
19.9483	72
19.9557	86
19.9631	74
19.9705	74
19.9779	77
19.9853	94
19.9927	79
20.0001	63
20.0075	79
20.0149	85
20.0222	75
20.0296	72
20.0370	85
20.0444	67
20.0518	78
20.0592	87
20.0666	79
20.0740	86
20.0814	62
20.0888	93
20.0962	66
20.1036	79
20.1110	79
20.1184	87
20.1258	99
20.1332	88
20.1406	88
20.1480	88
20.1554	95
20.1628	78
20.1702	75
20.1775	72
20.1849	67
20.1923	74
20.1997	78
20.2071	80
20.2145	82
20.2219	83
20.2293	97
20.2367	88
20.2441	82
20.2515	95
20.2589	84
20.2663	113
20.2737	99
20.2811	111
20.2885	99
20.2959	102
20.3033	116
20.3107	94
20.3181	115
20.3255	84
20.3328	108
20.3402	106
20.3476	114
20.3550	124
20.3624	114
20.3698	115
20.3772	144
20.3846	139
20.3920	167
20.3994	162
20.4068	194
20.4142	173
20.4216	218
20.4290	218
20.4364	286
20.4438	301
20.4512	345
20.4586	350
20.4660	458
20.4734	496
20.4808	603
20.4882	670
20.4955	751
20.5029	787
20.5103	846
20.5177	904
20.5251	925
20.5325	831
20.5399	854
20.5473	756
20.5547	773
20.5621	659
20.5695	657
20.5769	589
20.5843	489
20.5917	472
20.5991	385
20.6065	350
20.6139	291
20.6213	286
20.6287	226
20.6361	222
20.6435	169
20.6508	198
20.6582	137
20.6656	148
20.6730	157
20.6804	147
20.6878	117
20.6952	126
20.7026	123
20.7100	98
20.7174	126
20.7248	106
20.7322	84
20.7396	112
20.7470	109
20.7544	108
20.7618	95
20.7692	111
20.7766	109
20.7840	120
20.7914	108
20.7988	108
20.8061	125
20.8135	111
20.8209	111
20.8283	133
20.8357	113
20.8431	128
20.8505	122
20.8579	142
20.8653	120
20.8727	162
20.8801	188
20.8875	184
20.8949	209
20.9023	241
20.9097	284
20.9171	324
20.9245	318
20.9319	358
20.9393	360
20.9467	368
20.9541	291
20.9614	315
20.9688	280
20.9762	300
20.9836	278
20.9910	251
20.9984	235
21.0058	200
21.0132	209
21.0206	178
21.0280	151
21.0354	149
21.0428	127
21.0502	134
21.0576	135
21.0650	123
21.0724	133
21.0798	110
21.0872	131
21.0946	98
21.1020	138
21.1094	120
21.1167	108
21.1241	111
21.1315	113
21.1389	118
21.1463	109
21.1537	111
21.1611	127
21.1685	118
21.1759	107
21.1833	134
21.1907	126
21.1981	128
21.2055	127
21.2129	129
21.2203	149
21.2277	141
21.2351	140
21.2425	158
21.2499	153
21.2573	164
21.2647	162
21.2720	167
21.2794	146
21.2868	160
21.2942	181
21.3016	142
21.3090	156
21.3164	146
21.3238	146
21.3312	179
21.3386	176
21.3460	181
21.3534	192
21.3608	184
21.3682	174
21.3756	187
21.3830	191
21.3904	224
21.3978	247
21.4052	273
21.4126	331
21.4200	340
21.4273	356
21.4347	387
21.4421	466
21.4495	512
21.4569	646
21.4643	849
21.4717	944
21.4791	1163
21.4865	1277
21.4939	1497
21.5013	1659
21.5087	1687
21.5161	1581
21.5235	1662
21.5309	1537
21.5383	1402
21.5457	1325
21.5531	1206
21.5605	1155
21.5679	1023
21.5753	894
21.5826	803
21.5900	723
21.5974	583
21.6048	552
21.6122	490
21.6196	438
21.6270	401
21.6344	352
21.6418	363
21.6492	347
21.6566	387
21.6640	342
21.6714	392
21.6788	369
21.6862	428
21.6936	451
21.7010	456
21.7084	405
21.7158	457
21.7232	473
21.7306	465
21.7379	467
21.7453	453
21.7527	473
21.7601	451
21.7675	427
21.7749	480
21.7823	443
21.7897	406
21.7971	408
21.8045	468
21.8119	441
21.8193	447
21.8267	495
21.8341	497
21.8415	629
21.8489	656
21.8563	778
21.8637	866
21.8711	1021
21.8785	1241
21.8859	1474
21.8932	1755
21.9006	2082
21.9080	2612
21.9154	3144
21.9228	3993
21.9302	4647
21.9376	5704
21.9450	6574
21.9524	7135
21.9598	7588
21.9672	7816
21.9746	7739
21.9820	7032
21.9894	6613
21.9968	6005
22.0042	5489
22.0116	5134
22.0190	4570
22.0264	4255
22.0338	3737
22.0412	3023
22.0485	2354
22.0559	1899
22.0633	1468
22.0707	1147
22.0781	956
22.0855	795
22.0929	691
22.1003	638
22.1077	527
22.1151	493
22.1225	428
22.1299	423
22.1373	401
22.1447	323
22.1521	314
22.1595	336
22.1669	347
22.1743	279
22.1817	260
22.1891	270
22.1965	265
22.2039	247
22.2112	232
22.2186	232
22.2260	236
22.2334	222
22.2408	216
22.2482	231
22.2556	187
22.2630	192
22.2704	192
22.2778	192
22.2852	155
22.2926	179
22.3000	174
22.3074	174
22.3148	180
22.3222	181
22.3296	188
22.3370	172
22.3444	167
22.3518	165
22.3592	171
22.3665	150
22.3739	169
22.3813	155
22.3887	166
22.3961	148
22.4035	118
22.4109	160
22.4183	153
22.4257	137
22.4331	145
22.4405	144
22.4479	155
22.4553	134
22.4627	138
22.4701	161
22.4775	158
22.4849	130
22.4923	133
22.4997	144
22.5071	128
22.5145	145
22.5218	124
22.5292	142
22.5366	122
22.5440	123
22.5514	137
22.5588	139
22.5662	124
22.5736	134
22.5810	147
22.5884	129
22.5958	146
22.6032	145
22.6106	146
22.6180	143
22.6254	151
22.6328	135
22.6402	148
22.6476	169
22.6550	170
22.6624	174
22.6698	189
22.6771	199
22.6845	261
22.6919	238
22.6993	240
22.7067	274
22.7141	313
22.7215	352
22.7289	452
22.7363	459
22.7437	499
22.7511	516
22.7585	451
22.7659	445
22.7733	434
22.7807	409
22.7881	425
22.7955	389
22.8029	393
22.8103	363
22.8177	347
22.8251	295
22.8324	263
22.8398	230
22.8472	213
22.8546	188
22.8620	161
22.8694	161
22.8768	165
22.8842	175
22.8916	139
22.8990	157
22.9064	152
22.9138	137
22.9212	135
22.9286	139
22.9360	119
22.9434	110
22.9508	139
22.9582	132
22.9656	126
22.9730	123
22.9804	132
22.9877	121
22.9951	123
23.0025	125
23.0099	136
23.0173	105
23.0247	118
23.0321	116
23.0395	128
23.0469	114
23.0543	104
23.0617	124
23.0691	117
23.0765	146
23.0839	107
23.0913	122
23.0987	109
23.1061	124
23.1135	111
23.1209	117
23.1283	106
23.1357	132
23.1430	108
23.1504	101
23.1578	110
23.1652	124
23.1726	105
23.1800	126
23.1874	119
23.1948	115
23.2022	110
23.2096	128
23.2170	122
23.2244	136
23.2318	120
23.2392	130
23.2466	111
23.2540	106
23.2614	123
23.2688	132
23.2762	112
23.2836	110
23.2910	116
23.2983	107
23.3057	144
23.3131	126
23.3205	148
23.3279	143
23.3353	122
23.3427	123
23.3501	151
23.3575	140
23.3649	143
23.3723	142
23.3797	147
23.3871	158
23.3945	173
23.4019	208
23.4093	230
23.4167	216
23.4241	259
23.4315	305
23.4389	341
23.4463	418
23.4536	469
23.4610	570
23.4684	578
23.4758	600
23.4832	521
23.4906	584
23.4980	494
23.5054	495
23.5128	462
23.5202	463
23.5276	427
23.5350	372
23.5424	370
23.5498	339
23.5572	283
23.5646	247
23.5720	224
23.5794	188
23.5868	195
23.5942	158
23.6016	156
23.6089	145
23.6163	136
23.6237	130
23.6311	129
23.6385	114
23.6459	156
23.6533	107
23.6607	124
23.6681	139
23.6755	143
23.6829	125
23.6903	140
23.6977	115
23.7051	100
23.7125	121
23.7199	123
23.7273	144
23.7347	120
23.7421	122
23.7495	123
23.7569	123
23.7643	128
23.7716	134
23.7790	132
23.7864	118
23.7938	140
23.8012	156
23.8086	136
23.8160	142
23.8234	151
23.8308	155
23.8382	155
23.8456	149
23.8530	167
23.8604	158
23.8678	185
23.8752	167
23.8826	220
23.8900	220
23.8974	274
23.9048	286
23.9122	319
23.9196	338
23.9269	367
23.9343	413
23.9417	479
23.9491	551
23.9565	596
23.9639	626
23.9713	714
23.9787	766
23.9861	747
23.9935	738
24.0009	705
24.0083	676
24.0157	616
24.0231	632
24.0305	623
24.0379	514
24.0453	471
24.0527	508
24.0601	452
24.0675	398
24.0749	371
24.0822	319
24.0896	267
24.0970	259
24.1044	213
24.1118	182
24.1192	207
24.1266	165
24.1340	181
24.1414	171
24.1488	197
24.1562	173
24.1636	161
24.1710	152
24.1784	153
24.1858	158
24.1932	166
24.2006	168
24.2080	162
24.2154	170
24.2228	181
24.2302	193
24.2375	193
24.2449	204
24.2523	216
24.2597	260
24.2671	344
24.2745	324
24.2819	356
24.2893	405
24.2967	367
24.3041	374
24.3115	356
24.3189	381
24.3263	409
24.3337	424
24.3411	434
24.3485	476
24.3559	542
24.3633	564
24.3707	565
24.3781	604
24.3855	621
24.3928	591
24.4002	559
24.4076	505
24.4150	442
24.4224	473
24.4298	446
24.4372	423
24.4446	393
24.4520	372
24.4594	319
24.4668	323
24.4742	264
24.4816	248
24.4890	214
24.4964	181
24.5038	195
24.5112	166
24.5186	169
24.5260	143
24.5334	142
24.5408	127
24.5481	140
24.5555	138
24.5629	157
24.5703	137
24.5777	143
24.5851	134
24.5925	116
24.5999	134
24.6073	125
24.6147	140
24.6221	138
24.6295	137
24.6369	132
24.6443	141
24.6517	119
24.6591	142
24.6665	108
24.6739	140
24.6813	145
24.6887	138
24.6961	147
24.7034	142
24.7108	137
24.7182	169
24.7256	188
24.7330	155
24.7404	190
24.7478	202
24.7552	213
24.7626	219
24.7700	240
24.7774	256
24.7848	244
24.7922	271
24.7996	249
24.8070	249
24.8144	254
24.8218	241
24.8292	237
24.8366	231
24.8440	236
24.8514	222
24.8587	210
24.8661	198
24.8735	185
24.8809	153
24.8883	164
24.8957	151
24.9031	131
24.9105	129
24.9179	140
24.9253	126
24.9327	127
24.9401	126
24.9475	149
24.9549	135
24.9623	111
24.9697	139
24.9771	119
24.9845	147
24.9919	114
24.9993	137
25.0067	111
25.0140	123
25.0214	116
25.0288	132
25.0362	122
25.0436	137
25.0510	115
25.0584	119
25.0658	102
25.0732	139
25.0806	107
25.0880	141
25.0954	119
25.1028	130
25.1102	120
25.1176	121
25.1250	136
25.1324	136
25.1398	93
25.1472	134
25.1546	124
25.1620	143
25.1693	132
25.1767	126
25.1841	123
25.1915	98
25.1989	114
25.2063	120
25.2137	158
25.2211	121
25.2285	126
25.2359	142
25.2433	153
25.2507	143
25.2581	134
25.2655	135
25.2729	126
25.2803	129
25.2877	137
25.2951	165
25.3025	155
25.3099	126
25.3173	160
25.3247	164
25.3320	167
25.3394	169
25.3468	183
25.3542	220
25.3616	172
25.3690	218
25.3764	226
25.3838	234
25.3912	318
25.3986	317
25.4060	359
25.4134	426
25.4208	474
25.4282	561
25.4356	639
25.4430	752
25.4504	868
25.4578	975
25.4652	1145
25.4726	1257
25.4800	1357
25.4873	1366
25.4947	1347
25.5021	1319
25.5095	1146
25.5169	1149
25.5243	1017
25.5317	1037
25.5391	1020
25.5465	975
25.5539	932
25.5613	945
25.5687	866
25.5761	828
25.5835	782
25.5909	798
25.5983	872
25.6057	878
25.6131	926
25.6205	882
25.6279	914
25.6353	903
25.6426	761
25.6500	789
25.6574	701
25.6648	651
25.6722	643
25.6796	624
25.6870	577
25.6944	528
25.7018	485
25.7092	429
25.7166	378
25.7240	359
25.7314	328
25.7388	282
25.7462	241
25.7536	255
25.7610	230
25.7684	232
25.7758	223
25.7832	235
25.7906	255
25.7979	266
25.8053	282
25.8127	258
25.8201	328
25.8275	308
25.8349	314
25.8423	331
25.8497	322
25.8571	327
25.8645	334
25.8719	318
25.8793	324
25.8867	327
25.8941	302
25.9015	297
25.9089	280
25.9163	272
25.9237	250
25.9311	243
25.9385	257
25.9459	216
25.9532	244
25.9606	182
25.9680	180
25.9754	174
25.9828	192
25.9902	174
25.9976	162
26.0050	146
26.0124	144
26.0198	166
26.0272	149
26.0346	161
26.0420	155
26.0494	138
26.0568	153
26.0642	155
26.0716	135
26.0790	130
26.0864	156
26.0938	143
26.1012	118
26.1085	122
26.1159	144
26.1233	139
26.1307	143
26.1381	136
26.1455	125
26.1529	123
26.1603	148
26.1677	126
26.1751	127
26.1825	144
26.1899	139
26.1973	135
26.2047	149
26.2121	157
26.2195	152
26.2269	155
26.2343	143
26.2417	148
26.2491	154
26.2565	150
26.2638	147
26.2712	145
26.2786	162
26.2860	180
26.2934	169
26.3008	163
26.3082	163
26.3156	192
26.3230	180
26.3304	176
26.3378	203
26.3452	187
26.3526	213
26.3600	226
26.3674	222
26.3748	240
26.3822	296
26.3896	268
26.3970	281
26.4044	319
26.4118	343
26.4191	381
26.4265	407
26.4339	501
26.4413	531
26.4487	631
26.4561	701
26.4635	861
26.4709	928
26.4783	1054
26.4857	1214
26.4931	1342
26.5005	1493
26.5079	1629
26.5153	1660
26.5227	1655
26.5301	1748
26.5375	1605
26.5449	1592
26.5523	1535
26.5597	1409
26.5671	1306
26.5744	1341
26.5818	1185
26.5892	1114
26.5966	1069
26.6040	988
26.6114	863
26.6188	787
26.6262	669
26.6336	588
26.6410	526
26.6484	458
26.6558	441
26.6632	338
26.6706	336
26.6780	295
26.6854	290
26.6928	271
26.7002	222
26.7076	233
26.7150	221
26.7224	209
26.7297	183
26.7371	191
26.7445	203
26.7519	190
26.7593	167
26.7667	168
26.7741	174
26.7815	169
26.7889	181
26.7963	148
26.8037	143
26.8111	149
26.8185	155
26.8259	156
26.8333	163
26.8407	126
26.8481	156
26.8555	144
26.8629	143
26.8703	144
26.8777	133
26.8850	129
26.8924	111
26.8998	131
26.9072	163
26.9146	144
26.9220	162
26.9294	137
26.9368	116
26.9442	110
26.9516	139
26.9590	106
26.9664	145
26.9738	140
26.9812	139
26.9886	142
26.9960	132
27.0034	121
27.0108	126
27.0182	122
27.0256	118
27.0330	137
27.0404	142
27.0477	109
27.0551	109
27.0625	145
27.0699	132
27.0773	116
27.0847	100
27.0921	125
27.0995	129
27.1069	134
27.1143	126
27.1217	129
27.1291	110
27.1365	98
27.1439	148
27.1513	118
27.1587	126
27.1661	124
27.1735	126
27.1809	133
27.1883	146
27.1957	113
27.2030	119
27.2104	117
27.2178	122
27.2252	145
27.2326	139
27.2400	144
27.2474	126
27.2548	136
27.2622	154
27.2696	155
27.2770	138
27.2844	136
27.2918	150
27.2992	181
27.3066	181
27.3140	157
27.3214	218
27.3288	206
27.3362	225
27.3436	224
27.3510	216
27.3583	241
27.3657	260
27.3731	253
27.3805	358
27.3879	344
27.3953	422
27.4027	479
27.4101	568
27.4175	632
27.4249	719
27.4323	820
27.4397	943
27.4471	1067
27.4545	1209
27.4619	1312
27.4693	1314
27.4767	1366
27.4841	1319
27.4915	1258
27.4989	1165
27.5063	1059
27.5136	1025
27.5210	908
27.5284	880
27.5358	833
27.5432	824
27.5506	777
27.5580	673
27.5654	633
27.5728	524
27.5802	492
27.5876	405
27.5950	350
27.6024	316
27.6098	304
27.6172	262
27.6246	246
27.6320	246
27.6394	230
27.6468	211
27.6542	210
27.6616	210
27.6689	176
27.6763	179
27.6837	197
27.6911	166
27.6985	175
27.7059	155
27.7133	141
27.7207	161
27.7281	151
27.7355	128
27.7429	151
27.7503	144
27.7577	129
27.7651	138
27.7725	120
27.7799	143
27.7873	122
27.7947	138
27.8021	105
27.8095	118
27.8169	107
27.8242	112
27.8316	121
27.8390	117
27.8464	142
27.8538	142
27.8612	127
27.8686	106
27.8760	105
27.8834	94
27.8908	123
27.8982	97
27.9056	117
27.9130	91
27.9204	114
27.9278	112
27.9352	110
27.9426	133
27.9500	112
27.9574	113
27.9648	99
27.9722	100
27.9795	96
27.9869	109
27.9943	104
28.0017	100
28.0091	106
28.0165	108
28.0239	124
28.0313	111
28.0387	117
28.0461	94
28.0535	105
28.0609	99
28.0683	114
28.0757	94
28.0831	97
28.0905	109
28.0979	107
28.1053	121
28.1127	103
28.1201	102
28.1275	120
28.1348	113
28.1422	100
28.1496	105
28.1570	102
28.1644	119
28.1718	109
28.1792	115
28.1866	95
28.1940	116
28.2014	110
28.2088	95
28.2162	126
28.2236	94
28.2310	135
28.2384	124
28.2458	112
28.2532	122
28.2606	111
28.2680	129
28.2754	151
28.2828	118
28.2901	112
28.2975	132
28.3049	144
28.3123	150
28.3197	153
28.3271	163
28.3345	185
28.3419	173
28.3493	241
28.3567	221
28.3641	225
28.3715	267
28.3789	271
28.3863	312
28.3937	380
28.4011	411
28.4085	452
28.4159	458
28.4233	520
28.4307	579
28.4381	624
28.4454	577
28.4528	558
28.4602	531
28.4676	503
28.4750	553
28.4824	488
28.4898	450
28.4972	442
28.5046	420
28.5120	429
28.5194	403
28.5268	365
28.5342	333
28.5416	307
28.5490	290
28.5564	220
28.5638	224
28.5712	190
28.5786	192
28.5860	180
28.5934	171
28.6008	155
28.6081	157
28.6155	138
28.6229	159
28.6303	154
28.6377	131
28.6451	128
28.6525	143
28.6599	118
28.6673	109
28.6747	120
28.6821	119
28.6895	121
28.6969	110
28.7043	98
28.7117	116
28.7191	125
28.7265	127
28.7339	112
28.7413	113
28.7487	125
28.7561	108
28.7634	110
28.7708	101
28.7782	125
28.7856	119
28.7930	92
28.8004	114
28.8078	116
28.8152	112
28.8226	140
28.8300	129
28.8374	125
28.8448	122
28.8522	111
28.8596	118
28.8670	138
28.8744	142
28.8818	134
28.8892	145
28.8966	145
28.9040	146
28.9114	157
28.9187	157
28.9261	172
28.9335	157
28.9409	182
28.9483	181
28.9557	218
28.9631	264
28.9705	247
28.9779	293
28.9853	323
28.9927	300
29.0001	383
29.0075	363
29.0149	355
29.0223	363
29.0297	340
29.0371	286
29.0445	261
29.0519	273
29.0593	260
29.0667	267
29.0740	232
29.0814	228
29.0888	215
29.0962	227
29.1036	204
29.1110	173
29.1184	163
29.1258	158
29.1332	144
29.1406	117
29.1480	111
29.1554	109
29.1628	103
29.1702	122
29.1776	129
29.1850	111
29.1924	99
29.1998	100
29.2072	90
29.2146	98
29.2220	92
29.2293	112
29.2367	98
29.2441	98
29.2515	92
29.2589	97
29.2663	85
29.2737	82
29.2811	103
29.2885	91
29.2959	85
29.3033	93
29.3107	82
29.3181	107
29.3255	89
29.3329	93
29.3403	111
29.3477	99
29.3551	99
29.3625	84
29.3699	102
29.3773	90
29.3846	82
29.3920	93
29.3994	91
29.4068	96
29.4142	94
29.4216	81
29.4290	89
29.4364	102
29.4438	83
29.4512	97
29.4586	80
29.4660	105
29.4734	98
29.4808	116
29.4882	95
29.4956	105
29.5030	89
29.5104	106
29.5178	104
29.5252	76
29.5326	89
29.5399	103
29.5473	106
29.5547	106
29.5621	102
29.5695	100
29.5769	92
29.5843	93
29.5917	106
29.5991	111
29.6065	103
29.6139	106
29.6213	101
29.6287	110
29.6361	81
29.6435	98
29.6509	90
29.6583	87
29.6657	99
29.6731	84
29.6805	80
29.6879	104
29.6952	75
29.7026	94
29.7100	92
29.7174	91
29.7248	88
29.7322	84
29.7396	70
29.7470	93
29.7544	81
29.7618	85
29.7692	100
29.7766	97
29.7840	77
29.7914	109
29.7988	99
29.8062	93
29.8136	99
29.8210	79
29.8284	80
29.8358	87
29.8432	93
29.8505	96
29.8579	87
29.8653	77
29.8727	85
29.8801	73
29.8875	66
29.8949	101
29.9023	91
29.9097	69
29.9171	91
29.9245	92
29.9319	89
29.9393	106
29.9467	81
29.9541	84
29.9615	75
29.9689	83
29.9763	71
29.9837	90
29.9911	79
29.9985	83
30.0058	83
30.0132	91
30.0206	85
30.0280	80
30.0354	81
30.0428	82
30.0502	84
30.0576	79
30.0650	83
30.0724	89
30.0798	80
30.0872	88
30.0946	81
30.1020	73
30.1094	64
30.1168	79
30.1242	86
30.1316	102
30.1390	91
30.1464	84
30.1538	96
30.1612	89
30.1685	94
30.1759	79
30.1833	85
30.1907	74
30.1981	81
30.2055	93
30.2129	96
30.2203	89
30.2277	85
30.2351	83
30.2425	74
30.2499	84
30.2573	94
30.2647	93
30.2721	85
30.2795	78
30.2869	87
30.2943	87
30.3017	85
30.3091	71
30.3165	77
30.3238	84
30.3312	77
30.3386	91
30.3460	93
30.3534	62
30.3608	95
30.3682	77
30.3756	86
30.3830	83
30.3904	95
30.3978	94
30.4052	76
30.4126	98
30.4200	101
30.4274	98
30.4348	90
30.4422	109
30.4496	119
30.4570	116
30.4644	129
30.4718	117
30.4791	129
30.4865	144
30.4939	154
30.5013	141
30.5087	150
30.5161	172
30.5235	160
30.5309	179
30.5383	158
30.5457	184
30.5531	158
30.5605	138
30.5679	147
30.5753	149
30.5827	142
30.5901	121
30.5975	146
30.6049	159
30.6123	133
30.6197	132
30.6271	118
30.6344	108
30.6418	136
30.6492	124
30.6566	118
30.6640	91
30.6714	116
30.6788	112
30.6862	102
30.6936	87
30.7010	96
30.7084	87
30.7158	105
30.7232	115
30.7306	101
30.7380	109
30.7454	103
30.7528	97
30.7602	99
30.7676	86
30.7750	101
30.7824	80
30.7897	59
30.7971	91
30.8045	74
30.8119	88
30.8193	78
30.8267	74
30.8341	101
30.8415	75
30.8489	90
30.8563	84
30.8637	91
30.8711	85
30.8785	81
30.8859	75
30.8933	87
30.9007	75
30.9081	79
30.9155	93
30.9229	92
30.9303	87
30.9377	87
30.9450	75
30.9524	85
30.9598	90
30.9672	89
30.9746	83
30.9820	95
30.9894	95
30.9968	81
31.0042	88
31.0116	72
31.0190	73
31.0264	96
31.0338	102
31.0412	85
31.0486	79
31.0560	79
31.0634	78
31.0708	88
31.0782	73
31.0856	75
31.0930	82
31.1003	89
31.1077	93
31.1151	87
31.1225	86
31.1299	83
31.1373	82
31.1447	81
31.1521	83
31.1595	79
31.1669	85
31.1743	93
31.1817	88
31.1891	83
31.1965	89
31.2039	92
31.2113	95
31.2187	61
31.2261	105
31.2335	82
31.2409	105
31.2483	79
31.2556	111
31.2630	88
31.2704	85
31.2778	92
31.2852	89
31.2926	89
31.3000	103
31.3074	93
31.3148	105
31.3222	105
31.3296	118
31.3370	110
31.3444	129
31.3518	133
31.3592	144
31.3666	159
31.3740	146
31.3814	185
31.3888	202
31.3962	203
31.4036	226
31.4109	219
31.4183	219
31.4257	203
31.4331	203
31.4405	210
31.4479	228
31.4553	232
31.4627	196
31.4701	192
31.4775	202
31.4849	188
31.4923	186
31.4997	185
31.5071	190
31.5145	153
31.5219	160
31.5293	166
31.5367	166
31.5441	135
31.5515	180
31.5589	151
31.5662	176
31.5736	155
31.5810	171
31.5884	132
31.5958	128
31.6032	156
31.6106	134
31.6180	166
31.6254	124
31.6328	135
31.6402	116
31.6476	107
31.6550	139
31.6624	128
31.6698	125
31.6772	134
31.6846	146
31.6920	132
31.6994	131
31.7068	110
31.7142	93
31.7215	90
31.7289	86
31.7363	82
31.7437	97
31.7511	84
31.7585	95
31.7659	88
31.7733	79
31.7807	107
31.7881	87
31.7955	110
31.8029	94
31.8103	85
31.8177	99
31.8251	103
31.8325	94
31.8399	102
31.8473	89
31.8547	98
31.8621	99
31.8695	103
31.8769	114
31.8842	132
31.8916	136
31.8990	134
31.9064	130
31.9138	136
31.9212	130
31.9286	134
31.9360	145
31.9434	135
31.9508	131
31.9582	133
31.9656	121
31.9730	149
31.9804	164
31.9878	136
31.9952	122
32.0026	124
32.0100	104
32.0174	107
32.0248	108
32.0322	116
32.0395	118
32.0469	124
32.0543	103
32.0617	112
32.0691	90
32.0765	97
32.0839	106
32.0913	103
32.0987	96
32.1061	105
32.1135	88
32.1209	86
32.1283	94
32.1357	69
32.1431	85
32.1505	100
32.1579	90
32.1653	80
32.1727	74
32.1801	80
32.1875	85
32.1948	90
32.2022	77
32.2096	81
32.2170	80
32.2244	69
32.2318	83
32.2392	72
32.2466	76
32.2540	76
32.2614	70
32.2688	79
32.2762	83
32.2836	85
32.2910	74
32.2984	68
32.3058	65
32.3132	66
32.3206	85
32.3280	78
32.3354	84
32.3428	78
32.3501	62
32.3575	63
32.3649	81
32.3723	75
32.3797	85
32.3871	71
32.3945	76
32.4019	77
32.4093	70
32.4167	81
32.4241	85
32.4315	82
32.4389	89
32.4463	83
32.4537	86
32.4611	77
32.4685	89
32.4759	89
32.4833	75
32.4907	90
32.4981	90
32.5054	76
32.5128	56
32.5202	64
32.5276	88
32.5350	65
32.5424	72
32.5498	82
32.5572	72
32.5646	85
32.5720	72
32.5794	84
32.5868	63
32.5942	82
32.6016	77
32.6090	78
32.6164	68
32.6238	71
32.6312	60
32.6386	83
32.6460	81
32.6534	80
32.6607	96
32.6681	65
32.6755	69
32.6829	90
32.6903	70
32.6977	85
32.7051	69
32.7125	75
32.7199	63
32.7273	70
32.7347	81
32.7421	77
32.7495	72
32.7569	89
32.7643	78
32.7717	100
32.7791	62
32.7865	72
32.7939	77
32.8013	106
32.8087	78
32.8160	92
32.8234	94
32.8308	75
32.8382	66
32.8456	82
32.8530	90
32.8604	104
32.8678	98
32.8752	101
32.8826	93
32.8900	87
32.8974	87
32.9048	100
32.9122	97
32.9196	108
32.9270	75
32.9344	83
32.9418	98
32.9492	86
32.9566	84
32.9640	90
32.9713	94
32.9787	83
32.9861	81
32.9935	80
33.0009	94
33.0083	74
33.0157	70
33.0231	87
33.0305	97
33.0379	74
33.0453	86
33.0527	94
33.0601	74
33.0675	93
33.0749	94
33.0823	91
33.0897	79
33.0971	89
33.1045	92
33.1119	76
33.1193	80
33.1266	79
33.1340	110
33.1414	66
33.1488	66
33.1562	77
33.1636	101
33.1710	89
33.1784	78
33.1858	72
33.1932	96
33.2006	88
33.2080	86
33.2154	78
33.2228	86
33.2302	93
33.2376	85
33.2450	82
33.2524	101
33.2598	105
33.2672	122
33.2746	98
33.2819	101
33.2893	96
33.2967	114
33.3041	126
33.3115	120
33.3189	146
33.3263	124
33.3337	139
33.3411	128
33.3485	111
33.3559	111
33.3633	116
33.3707	120
33.3781	109
33.3855	123
33.3929	134
33.4003	126
33.4077	147
33.4151	161
33.4225	140
33.4299	141
33.4373	149
33.4446	144
33.4520	159
33.4594	171
33.4668	168
33.4742	167
33.4816	186
33.4890	206
33.4964	231
33.5038	248
33.5112	295
33.5186	278
33.5260	316
33.5334	334
33.5408	316
33.5482	369
33.5556	329
33.5630	388
33.5704	369
33.5778	371
33.5852	327
33.5926	362
33.5999	367
33.6073	300
33.6147	338
33.6221	359
33.6295	286
33.6369	285
33.6443	261
33.6517	281
33.6591	248
33.6665	278
33.6739	210
33.6813	227
33.6887	214
33.6961	196
33.7035	173
33.7109	164
33.7183	163
33.7257	159
33.7331	156
33.7405	111
33.7479	139
33.7552	140
33.7626	108
33.7700	111
33.7774	103
33.7848	100
33.7922	117
33.7996	94
33.8070	95
33.8144	108
33.8218	101
33.8292	87
33.8366	95
33.8440	121
33.8514	110
33.8588	84
33.8662	92
33.8736	100
33.8810	98
33.8884	97
33.8958	103
33.9032	87
33.9105	94
33.9179	91
33.9253	118
33.9327	112
33.9401	104
33.9475	112
33.9549	98
33.9623	116
33.9697	120
33.9771	108
33.9845	97
33.9919	94
33.9993	107
34.0067	99
34.0141	103
34.0215	105
34.0289	90
34.0363	119
34.0437	115
34.0511	104
34.0585	141
34.0658	99
34.0732	94
34.0806	117
34.0880	122
34.0954	125
34.1028	143
34.1102	115
34.1176	96
34.1250	123
34.1324	117
34.1398	99
34.1472	81
34.1546	90
34.1620	121
34.1694	126
34.1768	100
34.1842	95
34.1916	82
34.1990	101
34.2064	77
34.2138	95
34.2211	78
34.2285	82
34.2359	102
34.2433	77
34.2507	70
34.2581	86
34.2655	87
34.2729	97
34.2803	94
34.2877	85
34.2951	74
34.3025	74
34.3099	80
34.3173	84
34.3247	71
34.3321	84
34.3395	73
34.3469	92
34.3543	82
34.3617	70
34.3691	79
34.3764	68
34.3838	90
34.3912	71
34.3986	73
34.4060	77
34.4134	100
34.4208	79
34.4282	68
34.4356	83
34.4430	79
34.4504	70
34.4578	80
34.4652	84
34.4726	80
34.4800	82
34.4874	89
34.4948	79
34.5022	76
34.5096	75
34.5170	73
34.5244	86
34.5317	74
34.5391	91
34.5465	75
34.5539	78
34.5613	80
34.5687	64
34.5761	87
34.5835	90
34.5909	82
34.5983	88
34.6057	87
34.6131	60
34.6205	68
34.6279	77
34.6353	76
34.6427	76
34.6501	76
34.6575	72
34.6649	79
34.6723	83
34.6797	68
34.6870	77
34.6944	72
34.7018	86
34.7092	67
34.7166	74
34.7240	100
34.7314	78
34.7388	82
34.7462	76
34.7536	73
34.7610	77
34.7684	83
34.7758	90
34.7832	95
34.7906	94
34.7980	65
34.8054	89
34.8128	69
34.8202	71
34.8276	71
34.8350	91
34.8423	84
34.8497	83
34.8571	72
34.8645	74
34.8719	83
34.8793	64
34.8867	101
34.8941	82
34.9015	88
34.9089	88
34.9163	75
34.9237	70
34.9311	77
34.9385	100
34.9459	111
34.9533	111
34.9607	114
34.9681	120
34.9755	112
34.9829	108
34.9903	152
34.9977	129
35.0050	130
35.0124	124
35.0198	109
35.0272	108
35.0346	94
35.0420	108
35.0494	106
35.0568	94
35.0642	100
35.0716	107
35.0790	98
35.0864	107
35.0938	107
35.1012	125
35.1086	116
35.1160	121
35.1234	131
35.1308	124
35.1382	127
35.1456	106
35.1530	151
35.1603	117
35.1677	117
35.1751	110
35.1825	122
35.1899	118
35.1973	123
35.2047	115
35.2121	107
35.2195	114
35.2269	119
35.2343	122
35.2417	146
35.2491	110
35.2565	114
35.2639	115
35.2713	112
35.2787	113
35.2861	103
35.2935	99
35.3009	91
35.3083	84
35.3156	105
35.3230	100
35.3304	114
35.3378	94
35.3452	97
35.3526	99
35.3600	99
35.3674	100
35.3748	71
35.3822	108
35.3896	86
35.3970	75
35.4044	75
35.4118	88
35.4192	89
35.4266	92
35.4340	107
35.4414	114
35.4488	129
35.4562	126
35.4636	128
35.4709	150
35.4783	151
35.4857	132
35.4931	165
35.5005	143
35.5079	143
35.5153	134
35.5227	125
35.5301	145
35.5375	106
35.5449	133
35.5523	131
35.5597	106
35.5671	118
35.5745	123
35.5819	126
35.5893	115
35.5967	106
35.6041	99
35.6115	113
35.6189	92
35.6262	99
35.6336	89
35.6410	91
35.6484	72
35.6558	97
35.6632	84
35.6706	95
35.6780	69
35.6854	85
35.6928	89
35.7002	95
35.7076	76
35.7150	92
35.7224	80
35.7298	91
35.7372	81
35.7446	90
35.7520	70
35.7594	107
35.7668	81
35.7742	88
35.7815	73
35.7889	89
35.7963	85
35.8037	92
35.8111	81
35.8185	90
35.8259	75
35.8333	79
35.8407	106
35.8481	89
35.8555	91
35.8629	91
35.8703	108
35.8777	94
35.8851	107
35.8925	88
35.8999	106
35.9073	113
35.9147	88
35.9221	93
35.9295	93
35.9368	104
35.9442	132
35.9516	113
35.9590	119
35.9664	105
35.9738	131
35.9812	127
35.9886	146
35.9960	163
36.0034	206
36.0108	203
36.0182	235
36.0256	241
36.0330	300
36.0404	319
36.0478	301
36.0552	337
36.0626	326
36.0700	311
36.0774	327
36.0848	300
36.0921	256
36.0995	264
36.1069	274
36.1143	286
36.1217	277
36.1291	283
36.1365	249
36.1439	299
36.1513	265
36.1587	305
36.1661	268
36.1735	277
36.1809	265
36.1883	242
36.1957	231
36.2031	216
36.2105	176
36.2179	168
36.2253	157
36.2327	189
36.2401	171
36.2474	169
36.2548	166
36.2622	167
36.2696	156
36.2770	157
36.2844	149
36.2918	151
36.2992	187
36.3066	172
36.3140	156
36.3214	197
36.3288	183
36.3362	171
36.3436	186
36.3510	188
36.3584	156
36.3658	157
36.3732	164
36.3806	117
36.3880	136
36.3954	141
36.4027	109
36.4101	126
36.4175	155
36.4249	144
36.4323	133
36.4397	150
36.4471	119
36.4545	132
36.4619	109
36.4693	112
36.4767	114
36.4841	116
36.4915	95
36.4989	99
36.5063	99
36.5137	89
36.5211	82
36.5285	80
36.5359	77
36.5433	75
36.5507	71
36.5580	93
36.5654	78
36.5728	83
36.5802	74
36.5876	79
36.5950	77
36.6024	94
36.6098	71
36.6172	97
36.6246	70
36.6320	74
36.6394	90
36.6468	72
36.6542	82
36.6616	87
36.6690	76
36.6764	79
36.6838	87
36.6912	77
36.6986	89
36.7060	84
36.7134	72
36.7207	74
36.7281	87
36.7355	82
36.7429	83
36.7503	82
36.7577	76
36.7651	64
36.7725	70
36.7799	71
36.7873	91
36.7947	68
36.8021	75
36.8095	84
36.8169	79
36.8243	82
36.8317	66
36.8391	79
36.8465	87
36.8539	75
36.8613	94
36.8687	74
36.8760	78
36.8834	72
36.8908	100
36.8982	95
36.9056	73
36.9130	92
36.9204	83
36.9278	81
36.9352	79
36.9426	73
36.9500	80
36.9574	69
36.9648	88
36.9722	79
36.9796	77
36.9870	75
36.9944	63
37.0018	70
37.0092	84
37.0166	73
37.0240	86
37.0313	67
37.0387	92
37.0461	77
37.0535	72
37.0609	85
37.0683	89
37.0757	71
37.0831	96
37.0905	100
37.0979	86
37.1053	96
37.1127	103
37.1201	81
37.1275	116
37.1349	83
37.1423	109
37.1497	84
37.1571	111
37.1645	118
37.1719	106
37.1793	127
37.1866	107
37.1940	103
37.2014	114
37.2088	86
37.2162	103
37.2236	103
37.2310	94
37.2384	116
37.2458	97
37.2532	119
37.2606	97
37.2680	112
37.2754	88
37.2828	110
37.2902	106
37.2976	97
37.3050	84
37.3124	90
37.3198	88
37.3272	75
37.3346	69
37.3419	81
37.3493	81
37.3567	80
37.3641	82
37.3715	72
37.3789	82
37.3863	91
37.3937	76
37.4011	78
37.4085	87
37.4159	80
37.4233	104
37.4307	72
37.4381	88
37.4455	77
37.4529	100
37.4603	101
37.4677	86
37.4751	87
37.4825	79
37.4899	78
37.4972	98
37.5046	80
37.5120	114
37.5194	92
37.5268	86
37.5342	109
37.5416	98
37.5490	95
37.5564	92
37.5638	93
37.5712	100
37.5786	115
37.5860	93
37.5934	114
37.6008	129
37.6082	128
37.6156	154
37.6230	121
37.6304	135
37.6378	133
37.6452	157
37.6525	178
37.6599	184
37.6673	179
37.6747	177
37.6821	175
37.6895	192
37.6969	169
37.7043	205
37.7117	176
37.7191	180
37.7265	203
37.7339	166
37.7413	175
37.7487	165
37.7561	176
37.7635	167
37.7709	154
37.7783	153
37.7857	158
37.7931	154
37.8005	149
37.8078	134
37.8152	109
37.8226	116
37.8300	102
37.8374	122
37.8448	124
37.8522	113
37.8596	108
37.8670	120
37.8744	90
37.8818	83
37.8892	96
37.8966	105
37.9040	99
37.9114	103
37.9188	79
37.9262	94
37.9336	86
37.9410	79
37.9484	88
37.9558	96
37.9631	85
37.9705	86
37.9779	76
37.9853	88
37.9927	105
38.0001	86
38.0075	69
38.0149	88
38.0223	74
38.0297	83
38.0371	95
38.0445	85
38.0519	80
38.0593	82
38.0667	70
38.0741	95
38.0815	81
38.0889	70
38.0963	89
38.1037	92
38.1111	100
38.1184	77
38.1258	80
38.1332	88
38.1406	79
38.1480	83
38.1554	75
38.1628	99
38.1702	90
38.1776	90
38.1850	91
38.1924	108
38.1998	90
38.2072	99
38.2146	96
38.2220	91
38.2294	90
38.2368	105
38.2442	125
38.2516	99
38.2590	103
38.2664	92
38.2738	96
38.2811	95
38.2885	121
38.2959	115
38.3033	99
38.3107	123
38.3181	101
38.3255	131
38.3329	110
38.3403	101
38.3477	100
38.3551	118
38.3625	108
38.3699	112
38.3773	114
38.3847	94
38.3921	98
38.3995	103
38.4069	112
38.4143	115
38.4217	111
38.4291	103
38.4364	101
38.4438	108
38.4512	108
38.4586	121
38.4660	122
38.4734	119
38.4808	114
38.4882	117
38.4956	110
38.5030	142
38.5104	110
38.5178	116
38.5252	102
38.5326	105
38.5400	123
38.5474	119
38.5548	118
38.5622	100
38.5696	103
38.5770	119
38.5844	90
38.5917	104
38.5991	103
38.6065	106
38.6139	96
38.6213	116
38.6287	109
38.6361	89
38.6435	86
38.6509	96
38.6583	91
38.6657	85
38.6731	73
38.6805	91
38.6879	76
38.6953	77
38.7027	81
38.7101	89
38.7175	87
38.7249	88
38.7323	89
38.7397	86
38.7470	94
38.7544	79
38.7618	76
38.7692	80
38.7766	91
38.7840	100
38.7914	82
38.7988	86
38.8062	105
38.8136	89
38.8210	103
38.8284	90
38.8358	89
38.8432	98
38.8506	98
38.8580	79
38.8654	97
38.8728	80
38.8802	72
38.8876	83
38.8950	78
38.9023	88
38.9097	77
38.9171	91
38.9245	77
38.9319	98
38.9393	83
38.9467	87
38.9541	73
38.9615	74
38.9689	98
38.9763	83
38.9837	85
38.9911	98
38.9985	81
39.0059	88
39.0133	87
39.0207	96
39.0281	108
39.0355	113
39.0429	101
39.0503	80
39.0576	82
39.0650	78
39.0724	94
39.0798	96
39.0872	108
39.0946	117
39.1020	93
39.1094	103
39.1168	81
39.1242	91
39.1316	108
39.1390	107
39.1464	92
39.1538	101
39.1612	117
39.1686	129
39.1760	112
39.1834	115
39.1908	122
39.1982	123
39.2056	145
39.2129	151
39.2203	141
39.2277	147
39.2351	169
39.2425	152
39.2499	207
39.2573	247
39.2647	230
39.2721	253
39.2795	285
39.2869	358
39.2943	324
39.3017	334
39.3091	333
39.3165	321
39.3239	300
39.3313	278
39.3387	262
39.3461	237
39.3535	244
39.3609	264
39.3682	250
39.3756	291
39.3830	270
39.3904	298
39.3978	304
39.4052	334
39.4126	278
39.4200	311
39.4274	259
39.4348	292
39.4422	251
39.4496	239
39.4570	217
39.4644	190
39.4718	217
39.4792	212
39.4866	234
39.4940	204
39.5014	195
39.5088	211
39.5162	217
39.5235	202
39.5309	164
39.5383	186
39.5457	165
39.5531	190
39.5605	155
39.5679	153
39.5753	163
39.5827	144
39.5901	152
39.5975	142
39.6049	133
39.6123	130
39.6197	115
39.6271	139
39.6345	120
39.6419	122
39.6493	114
39.6567	111
39.6641	102
39.6715	103
39.6788	108
39.6862	102
39.6936	119
39.7010	96
39.7084	81
39.7158	96
39.7232	112
39.7306	111
39.7380	104
39.7454	104
39.7528	105
39.7602	89
39.7676	92
39.7750	98
39.7824	108
39.7898	79
39.7972	120
39.8046	141
39.8120	113
39.8194	107
39.8268	87
39.8342	110
39.8415	110
39.8489	99
39.8563	103
39.8637	105
39.8711	124
39.8785	101
39.8859	112
39.8933	97
39.9007	93
39.9081	101
39.9155	96
39.9229	88
39.9303	96
39.9377	114
39.9451	103
39.9525	94
39.9599	107
39.9673	98
39.9747	93
39.9821	98
39.9895	83
39.9968	93
