2.0000	243
2.0074	212
2.0148	210
2.0222	217
2.0296	199
2.0370	201
2.0444	201
2.0518	208
2.0592	237
2.0666	203
2.0740	212
2.0813	208
2.0887	213
2.0961	188
2.1035	187
2.1109	208
2.1183	197
2.1257	197
2.1331	223
2.1405	221
2.1479	213
2.1553	197
2.1627	227
2.1701	211
2.1775	223
2.1849	204
2.1923	223
2.1997	206
2.2071	203
2.2145	210
2.2219	198
2.2293	211
2.2366	201
2.2440	201
2.2514	207
2.2588	215
2.2662	191
2.2736	196
2.2810	216
2.2884	188
2.2958	210
2.3032	206
2.3106	195
2.3180	210
2.3254	211
2.3328	193
2.3402	196
2.3476	201
2.3550	188
2.3624	205
2.3698	199
2.3772	194
2.3846	205
2.3919	221
2.3993	212
2.4067	205
2.4141	203
2.4215	207
2.4289	215
2.4363	196
2.4437	216
2.4511	178
2.4585	198
2.4659	188
2.4733	197
2.4807	204
2.4881	178
2.4955	178
2.5029	172
2.5103	196
2.5177	173
2.5251	180
2.5325	162
2.5399	215
2.5472	205
2.5546	181
2.5620	178
2.5694	169
2.5768	195
2.5842	181
2.5916	178
2.5990	194
2.6064	197
2.6138	182
2.6212	193
2.6286	174
2.6360	168
2.6434	176
2.6508	194
2.6582	191
2.6656	198
2.6730	179
2.6804	194
2.6878	165
2.6952	176
2.7025	185
2.7099	173
2.7173	189
2.7247	195
2.7321	190
2.7395	194
2.7469	179
2.7543	175
2.7617	172
2.7691	161
2.7765	173
2.7839	204
2.7913	161
2.7987	184
2.8061	186
2.8135	174
2.8209	188
2.8283	175
2.8357	177
2.8431	173
2.8505	191
2.8579	157
2.8652	169
2.8726	156
2.8800	194
2.8874	160
2.8948	158
2.9022	174
2.9096	161
2.9170	148
2.9244	150
2.9318	147
2.9392	153
2.9466	184
2.9540	142
2.9614	148
2.9688	171
2.9762	178
2.9836	165
2.9910	176
2.9984	138
3.0058	157
3.0132	158
3.0205	180
3.0279	168
3.0353	195
3.0427	154
3.0501	171
3.0575	177
3.0649	139
3.0723	149
3.0797	199
3.0871	155
3.0945	161
3.1019	146
3.1093	186
3.1167	142
3.1241	178
3.1315	149
3.1389	162
3.1463	174
3.1537	177
3.1611	150
3.1685	155
3.1758	149
3.1832	162
3.1906	146
3.1980	142
3.2054	156
3.2128	145
3.2202	146
3.2276	143
3.2350	144
3.2424	143
3.2498	181
3.2572	179
3.2646	183
3.2720	155
3.2794	129
3.2868	135
3.2942	137
3.3016	145
3.3090	157
3.3164	152
3.3238	147
3.3311	138
3.3385	144
3.3459	151
3.3533	148
3.3607	148
3.3681	141
3.3755	158
3.3829	148
3.3903	148
3.3977	156
3.4051	135
3.4125	150
3.4199	140
3.4273	150
3.4347	129
3.4421	159
3.4495	157
3.4569	152
3.4643	138
3.4717	129
3.4791	138
3.4864	137
3.4938	137
3.5012	152
3.5086	135
3.5160	115
3.5234	134
3.5308	156
3.5382	152
3.5456	139
3.5530	148
3.5604	142
3.5678	137
3.5752	129
3.5826	147
3.5900	133
3.5974	148
3.6048	125
3.6122	136
3.6196	155
3.6270	136
3.6344	139
3.6417	117
3.6491	129
3.6565	146
3.6639	159
3.6713	131
3.6787	137
3.6861	124
3.6935	132
3.7009	134
3.7083	123
3.7157	148
3.7231	105
3.7305	151
3.7379	137
3.7453	145
3.7527	145
3.7601	130
3.7675	115
3.7749	131
3.7823	119
3.7897	134
3.7970	131
3.8044	122
3.8118	127
3.8192	137
3.8266	105
3.8340	132
3.8414	102
3.8488	114
3.8562	123
3.8636	111
3.8710	129
3.8784	116
3.8858	114
3.8932	113
3.9006	100
3.9080	124
3.9154	106
3.9228	112
3.9302	127
3.9376	115
3.9450	101
3.9523	116
3.9597	115
3.9671	99
3.9745	127
3.9819	119
3.9893	117
3.9967	126
4.0041	121
4.0115	114
4.0189	105
4.0263	106
4.0337	119
4.0411	116
4.0485	119
4.0559	124
4.0633	117
4.0707	124
4.0781	103
4.0855	99
4.0929	107
4.1003	113
4.1076	120
4.1150	104
4.1224	106
4.1298	94
4.1372	116
4.1446	104
4.1520	119
4.1594	103
4.1668	115
4.1742	108
4.1816	88
4.1890	116
4.1964	94
4.2038	84
4.2112	87
4.2186	112
4.2260	117
4.2334	115
4.2408	103
4.2482	94
4.2556	112
4.2629	100
4.2703	110
4.2777	95
4.2851	90
4.2925	101
4.2999	108
4.3073	92
4.3147	92
4.3221	97
4.3295	98
4.3369	99
4.3443	92
4.3517	90
4.3591	107
4.3665	101
4.3739	91
4.3813	101
4.3887	99
4.3961	97
4.4035	104
4.4109	97
4.4183	105
4.4256	103
4.4330	92
4.4404	108
4.4478	99
4.4552	100
4.4626	110
4.4700	97
4.4774	99
4.4848	107
4.4922	97
4.4996	109
4.5070	91
4.5144	76
4.5218	111
4.5292	111
4.5366	90
4.5440	112
4.5514	87
4.5588	90
4.5662	86
4.5736	94
4.5809	102
4.5883	107
4.5957	78
4.6031	95
4.6105	94
4.6179	93
4.6253	91
4.6327	101
4.6401	102
4.6475	81
4.6549	113
4.6623	90
4.6697	98
4.6771	100
4.6845	99
4.6919	100
4.6993	83
4.7067	95
4.7141	86
4.7215	84
4.7289	76
4.7362	101
4.7436	80
4.7510	83
4.7584	78
4.7658	80
4.7732	76
4.7806	92
4.7880	72
4.7954	81
4.8028	78
4.8102	111
4.8176	70
4.8250	92
4.8324	92
4.8398	74
4.8472	86
4.8546	61
4.8620	86
4.8694	86
4.8768	88
4.8842	76
4.8915	83
4.8989	80
4.9063	86
4.9137	69
4.9211	64
4.9285	98
4.9359	87
4.9433	78
4.9507	72
4.9581	79
4.9655	91
4.9729	94
4.9803	84
4.9877	71
4.9951	99
5.0025	75
5.0099	71
5.0173	80
5.0247	75
5.0321	84
5.0395	80
5.0468	90
5.0542	73
5.0616	77
5.0690	73
5.0764	77
5.0838	79
5.0912	78
5.0986	76
5.1060	91
5.1134	76
5.1208	67
5.1282	81
5.1356	76
5.1430	65
5.1504	73
5.1578	66
5.1652	76
5.1726	65
5.1800	80
5.1874	81
5.1948	81
5.2021	75
5.2095	84
5.2169	84
5.2243	74
5.2317	81
5.2391	71
5.2465	90
5.2539	78
5.2613	65
5.2687	62
5.2761	71
5.2835	83
5.2909	88
5.2983	74
5.3057	92
5.3131	74
5.3205	67
5.3279	62
5.3353	85
5.3427	58
5.3501	73
5.3574	77
5.3648	74
5.3722	69
5.3796	74
5.3870	72
5.3944	64
5.4018	71
5.4092	77
5.4166	61
5.4240	63
5.4314	66
5.4388	61
5.4462	64
5.4536	70
5.4610	77
5.4684	64
5.4758	61
5.4832	56
5.4906	65
5.4980	79
5.5054	59
5.5127	71
5.5201	68
5.5275	79
5.5349	80
5.5423	87
5.5497	80
5.5571	78
5.5645	84
5.5719	78
5.5793	69
5.5867	67
5.5941	78
5.6015	76
5.6089	70
5.6163	84
5.6237	65
5.6311	69
5.6385	56
5.6459	59
5.6533	68
5.6607	78
5.6680	75
5.6754	83
5.6828	77
5.6902	74
5.6976	73
5.7050	66
5.7124	61
5.7198	70
5.7272	70
5.7346	59
5.7420	74
5.7494	63
5.7568	55
5.7642	80
5.7716	82
5.7790	77
5.7864	78
5.7938	71
5.8012	70
5.8086	87
5.8160	64
5.8233	73
5.8307	51
5.8381	58
5.8455	67
5.8529	62
5.8603	72
5.8677	55
5.8751	73
5.8825	70
5.8899	55
5.8973	76
5.9047	60
5.9121	72
5.9195	65
5.9269	75
5.9343	70
5.9417	58
5.9491	68
5.9565	59
5.9639	54
5.9713	64
5.9786	55
5.9860	69
5.9934	76
6.0008	61
6.0082	63
6.0156	72
6.0230	52
6.0304	66
6.0378	71
6.0452	83
6.0526	53
6.0600	53
6.0674	68
6.0748	59
6.0822	79
6.0896	60
6.0970	61
6.1044	57
6.1118	68
6.1192	61
6.1266	65
6.1340	62
6.1413	64
6.1487	57
6.1561	57
6.1635	67
6.1709	68
6.1783	54
6.1857	51
6.1931	64
6.2005	61
6.2079	56
6.2153	61
6.2227	75
6.2301	70
6.2375	68
6.2449	60
6.2523	80
6.2597	57
6.2671	59
6.2745	61
6.2819	63
6.2893	63
6.2966	72
6.3040	53
6.3114	74
6.3188	70
6.3262	62
6.3336	69
6.3410	82
6.3484	55
6.3558	68
6.3632	68
6.3706	68
6.3780	63
6.3854	73
6.3928	71
6.4002	73
6.4076	55
6.4150	48
6.4224	75
6.4298	55
6.4372	68
6.4446	60
6.4519	56
6.4593	64
6.4667	53
6.4741	55
6.4815	60
6.4889	78
6.4963	60
6.5037	66
6.5111	62
6.5185	65
6.5259	64
6.5333	55
6.5407	54
6.5481	53
6.5555	59
6.5629	51
6.5703	59
6.5777	52
6.5851	56
6.5925	61
6.5999	43
6.6072	56
6.6146	49
6.6220	68
6.6294	62
6.6368	55
6.6442	66
6.6516	50
6.6590	56
6.6664	74
6.6738	74
6.6812	64
6.6886	61
6.6960	59
6.7034	52
6.7108	69
6.7182	44
6.7256	58
6.7330	69
6.7404	64
6.7478	48
6.7552	45
6.7625	56
6.7699	48
6.7773	50
6.7847	57
6.7921	55
6.7995	54
6.8069	64
6.8143	68
6.8217	58
6.8291	59
6.8365	57
6.8439	63
6.8513	48
6.8587	60
6.8661	59
6.8735	65
6.8809	58
6.8883	69
6.8957	57
6.9031	64
6.9105	50
6.9178	72
6.9252	65
6.9326	58
6.9400	49
6.9474	76
6.9548	63
6.9622	68
6.9696	54
6.9770	63
6.9844	64
6.9918	54
6.9992	67
7.0066	48
7.0140	52
7.0214	67
7.0288	55
7.0362	48
7.0436	70
7.0510	62
7.0584	64
7.0658	48
7.0731	50
7.0805	61
7.0879	52
7.0953	63
7.1027	53
7.1101	45
7.1175	75
7.1249	58
7.1323	62
7.1397	59
7.1471	54
7.1545	61
7.1619	67
7.1693	64
7.1767	56
7.1841	59
7.1915	60
7.1989	84
7.2063	59
7.2137	47
7.2211	47
7.2284	57
7.2358	55
7.2432	52
7.2506	55
7.2580	56
7.2654	46
7.2728	71
7.2802	58
7.2876	58
7.2950	57
7.3024	56
7.3098	65
7.3172	53
7.3246	65
7.3320	52
7.3394	52
7.3468	55
7.3542	57
7.3616	65
7.3690	64
7.3764	48
7.3837	66
7.3911	58
7.3985	64
7.4059	52
7.4133	47
7.4207	50
7.4281	69
7.4355	54
7.4429	69
7.4503	57
7.4577	53
7.4651	47
7.4725	55
7.4799	62
7.4873	48
7.4947	53
7.5021	50
7.5095	65
7.5169	53
7.5243	66
7.5317	67
7.5390	52
7.5464	55
7.5538	49
7.5612	43
7.5686	75
7.5760	60
7.5834	64
7.5908	43
7.5982	51
7.6056	63
7.6130	47
7.6204	45
7.6278	61
7.6352	59
7.6426	59
7.6500	53
7.6574	53
7.6648	55
7.6722	56
7.6796	60
7.6870	65
7.6944	50
7.7017	62
7.7091	64
7.7165	66
7.7239	58
7.7313	42
7.7387	64
7.7461	52
7.7535	55
7.7609	65
7.7683	51
7.7757	63
7.7831	60
7.7905	62
7.7979	51
7.8053	49
7.8127	63
7.8201	70
7.8275	50
7.8349	63
7.8423	67
7.8497	51
7.8570	52
7.8644	62
7.8718	71
7.8792	53
7.8866	68
7.8940	65
7.9014	51
7.9088	46
7.9162	57
7.9236	74
7.9310	70
7.9384	53
7.9458	54
7.9532	46
7.9606	45
7.9680	66
7.9754	54
7.9828	55
7.9902	53
7.9976	51
8.0050	55
8.0123	48
8.0197	48
8.0271	47
8.0345	60
8.0419	55
8.0493	55
8.0567	62
8.0641	57
8.0715	62
8.0789	47
8.0863	49
8.0937	59
8.1011	74
8.1085	48
8.1159	52
8.1233	64
8.1307	57
8.1381	65
8.1455	70
8.1529	69
8.1603	70
8.1676	66
8.1750	67
8.1824	57
8.1898	51
8.1972	64
8.2046	51
8.2120	56
8.2194	50
8.2268	65
8.2342	70
8.2416	76
8.2490	66
8.2564	85
8.2638	72
8.2712	83
8.2786	80
8.2860	90
8.2934	83
8.3008	87
8.3082	78
8.3156	100
8.3229	74
8.3303	77
8.3377	92
8.3451	74
8.3525	78
8.3599	92
8.3673	98
8.3747	118
8.3821	117
8.3895	108
8.3969	121
8.4043	123
8.4117	148
8.4191	157
8.4265	174
8.4339	179
8.4413	198
8.4487	201
8.4561	249
8.4635	265
8.4709	297
8.4782	329
8.4856	389
8.4930	410
8.5004	493
8.5078	572
8.5152	623
8.5226	633
8.5300	728
8.5374	706
8.5448	695
8.5522	614
8.5596	591
8.5670	528
8.5744	425
8.5818	349
8.5892	265
8.5966	243
8.6040	199
8.6114	178
8.6188	141
8.6262	113
8.6335	107
8.6409	98
8.6483	88
8.6557	88
8.6631	91
8.6705	71
8.6779	75
8.6853	87
8.6927	70
8.7001	79
8.7075	68
8.7149	69
8.7223	63
8.7297	60
8.7371	63
8.7445	74
8.7519	71
8.7593	74
8.7667	48
8.7741	78
8.7815	54
8.7888	52
8.7962	67
8.8036	58
8.8110	66
8.8184	65
8.8258	63
8.8332	53
8.8406	53
8.8480	59
8.8554	63
8.8628	55
8.8702	62
8.8776	62
8.8850	54
8.8924	76
8.8998	60
8.9072	60
8.9146	56
8.9220	76
8.9294	43
8.9368	52
8.9441	73
8.9515	68
8.9589	50
8.9663	62
8.9737	50
8.9811	54
8.9885	73
8.9959	53
9.0033	56
9.0107	60
9.0181	71
9.0255	67
9.0329	61
9.0403	67
9.0477	56
9.0551	53
9.0625	60
9.0699	66
9.0773	59
9.0847	58
9.0921	45
9.0994	68
9.1068	51
9.1142	50
9.1216	64
9.1290	49
9.1364	64
9.1438	67
9.1512	60
9.1586	59
9.1660	70
9.1734	53
9.1808	51
9.1882	53
9.1956	69
9.2030	51
9.2104	63
9.2178	52
9.2252	64
9.2326	60
9.2400	50
9.2474	57
9.2548	54
9.2621	55
9.2695	62
9.2769	53
9.2843	61
9.2917	68
9.2991	53
9.3065	46
9.3139	61
9.3213	67
9.3287	53
9.3361	65
9.3435	44
9.3509	64
9.3583	53
9.3657	48
9.3731	48
9.3805	55
9.3879	63
9.3953	55
9.4027	56
9.4101	56
9.4174	66
9.4248	60
9.4322	62
9.4396	61
9.4470	56
9.4544	55
9.4618	51
9.4692	53
9.4766	48
9.4840	73
9.4914	51
9.4988	49
9.5062	57
9.5136	50
9.5210	50
9.5284	51
9.5358	47
9.5432	55
9.5506	41
9.5580	55
9.5654	50
9.5727	60
9.5801	65
9.5875	54
9.5949	56
9.6023	51
9.6097	50
9.6171	48
9.6245	60
9.6319	60
9.6393	58
9.6467	65
9.6541	58
9.6615	55
9.6689	50
9.6763	57
9.6837	57
9.6911	76
9.6985	57
9.7059	52
9.7133	48
9.7207	57
9.7280	58
9.7354	49
9.7428	60
9.7502	55
9.7576	51
9.7650	68
9.7724	58
9.7798	58
9.7872	47
9.7946	60
9.8020	62
9.8094	65
9.8168	72
9.8242	58
9.8316	53
9.8390	48
9.8464	60
9.8538	53
9.8612	55
9.8686	66
9.8760	44
9.8833	59
9.8907	60
9.8981	64
9.9055	55
9.9129	62
9.9203	55
9.9277	46
9.9351	50
9.9425	48
9.9499	59
9.9573	59
9.9647	59
9.9721	52
9.9795	59
9.9869	50
9.9943	59
10.0017	55
10.0091	59
10.0165	54
10.0239	60
10.0313	57
10.0386	66
10.0460	53
10.0534	54
10.0608	48
10.0682	55
10.0756	46
10.0830	61
10.0904	51
10.0978	69
10.1052	51
10.1126	45
10.1200	47
10.1274	57
10.1348	55
10.1422	59
10.1496	60
10.1570	65
10.1644	54
10.1718	51
10.1792	52
10.1866	59
10.1939	45
10.2013	50
10.2087	51
10.2161	44
10.2235	56
10.2309	35
10.2383	47
10.2457	54
10.2531	54
10.2605	48
10.2679	54
10.2753	70
10.2827	64
10.2901	58
10.2975	53
10.3049	61
10.3123	46
10.3197	49
10.3271	41
10.3345	56
10.3419	64
10.3492	54
10.3566	63
10.3640	50
10.3714	68
10.3788	60
10.3862	48
10.3936	57
10.4010	55
10.4084	57
10.4158	57
10.4232	47
10.4306	50
10.4380	50
10.4454	48
10.4528	36
10.4602	50
10.4676	52
10.4750	57
10.4824	44
10.4898	54
10.4972	60
10.5045	54
10.5119	53
10.5193	62
10.5267	52
10.5341	55
10.5415	67
10.5489	53
10.5563	52
10.5637	47
10.5711	32
10.5785	59
10.5859	53
10.5933	51
10.6007	45
10.6081	67
10.6155	53
10.6229	48
10.6303	53
10.6377	48
10.6451	54
10.6525	64
10.6598	55
10.6672	33
10.6746	57
10.6820	59
10.6894	60
10.6968	57
10.7042	58
10.7116	41
10.7190	56
10.7264	50
10.7338	54
10.7412	57
10.7486	49
10.7560	51
10.7634	49
10.7708	53
10.7782	47
10.7856	53
10.7930	57
10.8004	60
10.8078	47
10.8151	50
10.8225	57
10.8299	55
10.8373	56
10.8447	56
10.8521	72
10.8595	54
10.8669	51
10.8743	51
10.8817	66
10.8891	62
10.8965	47
10.9039	53
10.9113	55
10.9187	50
10.9261	53
10.9335	48
10.9409	50
10.9483	54
10.9557	42
10.9631	60
10.9705	49
10.9778	55
10.9852	68
10.9926	56
11.0000	69
11.0074	65
11.0148	56
11.0222	44
11.0296	62
11.0370	45
11.0444	57
11.0518	52
11.0592	48
11.0666	50
11.0740	46
11.0814	41
11.0888	45
11.0962	60
11.1036	63
11.1110	70
11.1184	53
11.1258	61
11.1331	46
11.1405	60
11.1479	57
11.1553	50
11.1627	49
11.1701	53
11.1775	55
11.1849	40
11.1923	52
11.1997	67
11.2071	57
11.2145	68
11.2219	54
11.2293	54
11.2367	41
11.2441	45
11.2515	70
11.2589	60
11.2663	45
11.2737	48
11.2811	58
11.2884	55
11.2958	61
11.3032	58
11.3106	58
11.3180	68
11.3254	61
11.3328	57
11.3402	63
11.3476	48
11.3550	67
11.3624	62
11.3698	58
11.3772	62
11.3846	64
11.3920	63
11.3994	54
11.4068	70
11.4142	69
11.4216	55
11.4290	45
11.4364	52
11.4437	54
11.4511	53
11.4585	62
11.4659	68
11.4733	61
11.4807	52
11.4881	54
11.4955	53
11.5029	59
11.5103	65
11.5177	60
11.5251	64
11.5325	73
11.5399	61
11.5473	69
11.5547	85
11.5621	76
11.5695	74
11.5769	71
11.5843	65
11.5917	93
11.5990	94
11.6064	86
11.6138	102
11.6212	102
11.6286	112
11.6360	122
11.6434	130
11.6508	147
11.6582	150
11.6656	168
11.6730	207
11.6804	198
11.6878	241
11.6952	309
11.7026	302
11.7100	289
11.7174	336
11.7248	345
11.7322	335
11.7396	357
11.7470	290
11.7543	288
11.7617	234
11.7691	230
11.7765	202
11.7839	175
11.7913	139
11.7987	150
11.8061	107
11.8135	122
11.8209	101
11.8283	108
11.8357	82
11.8431	71
11.8505	83
11.8579	73
11.8653	70
11.8727	69
11.8801	59
11.8875	81
11.8949	63
11.9023	96
11.9096	55
11.9170	78
11.9244	84
11.9318	55
11.9392	70
11.9466	72
11.9540	53
11.9614	54
11.9688	53
11.9762	67
11.9836	62
11.9910	67
11.9984	61
12.0058	65
12.0132	60
12.0206	64
12.0280	63
12.0354	60
12.0428	65
12.0502	64
12.0576	61
12.0649	57
12.0723	60
12.0797	50
12.0871	77
12.0945	60
12.1019	48
12.1093	69
12.1167	61
12.1241	67
12.1315	52
12.1389	84
12.1463	72
12.1537	89
12.1611	71
12.1685	72
12.1759	70
12.1833	93
12.1907	95
12.1981	93
12.2055	80
12.2129	82
12.2202	96
12.2276	120
12.2350	121
12.2424	130
12.2498	114
12.2572	131
12.2646	139
12.2720	139
12.2794	187
12.2868	191
12.2942	230
12.3016	230
12.3090	268
12.3164	310
12.3238	319
12.3312	388
12.3386	406
12.3460	466
12.3534	486
12.3608	494
12.3682	516
12.3755	578
12.3829	599
12.3903	541
12.3977	554
12.4051	524
12.4125	463
12.4199	402
12.4273	301
12.4347	264
12.4421	246
12.4495	206
12.4569	150
12.4643	138
12.4717	156
12.4791	116
12.4865	103
12.4939	86
12.5013	95
12.5087	84
12.5161	81
12.5235	81
12.5309	82
12.5382	66
12.5456	81
12.5530	81
12.5604	72
12.5678	78
12.5752	64
12.5826	69
12.5900	66
12.5974	67
12.6048	75
12.6122	75
12.6196	58
12.6270	53
12.6344	60
12.6418	71
12.6492	57
12.6566	69
12.6640	76
12.6714	67
12.6788	69
12.6862	71
12.6935	51
12.7009	59
12.7083	55
12.7157	71
12.7231	56
12.7305	66
12.7379	50
12.7453	55
12.7527	77
12.7601	65
12.7675	63
12.7749	71
12.7823	61
12.7897	65
12.7971	56
12.8045	61
12.8119	59
12.8193	61
12.8267	63
12.8341	55
12.8415	67
12.8488	55
12.8562	61
12.8636	59
12.8710	60
12.8784	64
12.8858	58
12.8932	66
12.9006	59
12.9080	59
12.9154	61
12.9228	67
12.9302	56
12.9376	64
12.9450	56
12.9524	69
12.9598	65
12.9672	58
12.9746	69
12.9820	57
12.9894	64
12.9968	50
13.0041	65
13.0115	72
13.0189	70
13.0263	75
13.0337	69
13.0411	56
13.0485	68
13.0559	78
13.0633	61
13.0707	68
13.0781	71
13.0855	69
13.0929	79
13.1003	93
13.1077	91
13.1151	85
13.1225	82
13.1299	77
13.1373	101
13.1447	86
13.1521	98
13.1594	123
13.1668	115
13.1742	136
13.1816	164
13.1890	194
13.1964	191
13.2038	218
13.2112	264
13.2186	282
13.2260	321
13.2334	348
13.2408	377
13.2482	399
13.2556	398
13.2630	391
13.2704	441
13.2778	367
13.2852	313
13.2926	334
13.3000	259
13.3074	226
13.3147	233
13.3221	237
13.3295	152
13.3369	145
13.3443	117
13.3517	125
13.3591	116
13.3665	108
13.3739	119
13.3813	100
13.3887	97
13.3961	95
13.4035	80
13.4109	81
13.4183	74
13.4257	80
13.4331	83
13.4405	79
13.4479	85
13.4553	84
13.4627	82
13.4700	88
13.4774	89
13.4848	57
13.4922	102
13.4996	93
13.5070	102
13.5144	75
13.5218	88
13.5292	93
13.5366	122
13.5440	116
13.5514	120
13.5588	137
13.5662	121
13.5736	135
13.5810	163
13.5884	167
13.5958	187
13.6032	191
13.6106	233
13.6180	307
13.6253	333
13.6327	379
13.6401	421
13.6475	484
13.6549	541
13.6623	634
13.6697	645
13.6771	720
13.6845	782
13.6919	836
13.6993	778
13.7067	831
13.7141	772
13.7215	735
13.7289	638
13.7363	567
13.7437	454
13.7511	412
13.7585	309
13.7659	291
13.7733	240
13.7806	180
13.7880	167
13.7954	155
13.8028	138
13.8102	136
13.8176	106
13.8250	94
13.8324	103
13.8398	93
13.8472	81
13.8546	76
13.8620	75
13.8694	94
13.8768	63
13.8842	74
13.8916	72
13.8990	65
13.9064	83
13.9138	72
13.9212	93
13.9286	69
13.9359	57
13.9433	80
13.9507	83
13.9581	59
13.9655	71
13.9729	75
13.9803	65
13.9877	51
13.9951	66
14.0025	59
14.0099	59
14.0173	70
14.0247	54
14.0321	67
14.0395	65
14.0469	63
14.0543	63
14.0617	60
14.0691	58
14.0765	61
14.0839	50
14.0913	57
14.0986	61
14.1060	55
14.1134	55
14.1208	49
14.1282	58
14.1356	53
14.1430	64
14.1504	72
14.1578	53
14.1652	63
14.1726	43
14.1800	61
14.1874	80
14.1948	59
14.2022	71
14.2096	55
14.2170	61
14.2244	49
14.2318	64
14.2392	56
14.2466	66
14.2539	48
14.2613	53
14.2687	42
14.2761	70
14.2835	60
14.2909	61
14.2983	75
14.3057	48
14.3131	70
14.3205	66
14.3279	55
14.3353	77
14.3427	71
14.3501	72
14.3575	72
14.3649	74
14.3723	64
14.3797	71
14.3871	74
14.3945	87
14.4019	75
14.4092	73
14.4166	73
14.4240	79
14.4314	83
14.4388	60
14.4462	47
14.4536	64
14.4610	69
14.4684	75
14.4758	58
14.4832	58
14.4906	52
14.4980	41
14.5054	46
14.5128	54
14.5202	58
14.5276	56
14.5350	56
14.5424	60
14.5498	59
14.5572	56
14.5645	60
14.5719	62
14.5793	58
14.5867	61
14.5941	36
14.6015	60
14.6089	52
14.6163	48
14.6237	57
14.6311	55
14.6385	53
14.6459	42
14.6533	53
14.6607	46
14.6681	48
14.6755	40
14.6829	53
14.6903	44
14.6977	41
14.7051	46
14.7125	42
14.7198	36
14.7272	55
14.7346	52
14.7420	52
14.7494	51
14.7568	49
14.7642	50
14.7716	53
14.7790	47
14.7864	48
14.7938	57
14.8012	46
14.8086	54
14.8160	53
14.8234	44
14.8308	39
14.8382	45
14.8456	54
14.8530	55
14.8604	50
14.8678	36
14.8751	56
14.8825	53
14.8899	37
14.8973	51
14.9047	54
14.9121	59
14.9195	42
14.9269	54
14.9343	57
14.9417	57
14.9491	32
14.9565	52
14.9639	47
14.9713	47
14.9787	59
14.9861	50
14.9935	48
15.0009	55
15.0083	49
15.0157	55
15.0231	41
15.0304	46
15.0378	47
15.0452	42
15.0526	37
15.0600	58
15.0674	53
15.0748	43
15.0822	54
15.0896	41
15.0970	42
15.1044	46
15.1118	48
15.1192	38
15.1266	39
15.1340	61
15.1414	61
15.1488	42
15.1562	49
15.1636	44
15.1710	33
15.1784	50
15.1857	51
15.1931	47
15.2005	36
15.2079	54
15.2153	54
15.2227	53
15.2301	40
15.2375	41
15.2449	54
15.2523	43
15.2597	56
15.2671	46
15.2745	43
15.2819	49
15.2893	43
15.2967	46
15.3041	41
15.3115	33
15.3189	38
15.3263	59
15.3337	47
15.3410	38
15.3484	43
15.3558	41
15.3632	45
15.3706	40
15.3780	45
15.3854	37
15.3928	51
15.4002	37
15.4076	35
15.4150	35
15.4224	49
15.4298	46
15.4372	54
15.4446	37
15.4520	38
15.4594	47
15.4668	52
15.4742	37
15.4816	59
15.4890	47
15.4963	60
15.5037	42
15.5111	56
15.5185	49
15.5259	47
15.5333	46
15.5407	64
15.5481	55
15.5555	58
15.5629	60
15.5703	56
15.5777	56
15.5851	50
15.5925	46
15.5999	51
15.6073	41
15.6147	57
15.6221	40
15.6295	49
15.6369	41
15.6443	45
15.6516	52
15.6590	46
15.6664	46
15.6738	49
15.6812	37
15.6886	51
15.6960	40
15.7034	32
15.7108	47
15.7182	46
15.7256	37
15.7330	38
15.7404	44
15.7478	46
15.7552	46
15.7626	39
15.7700	40
15.7774	52
15.7848	45
15.7922	40
15.7996	43
15.8070	37
15.8143	39
15.8217	44
15.8291	34
15.8365	52
15.8439	49
15.8513	54
15.8587	44
15.8661	49
15.8735	37
15.8809	43
15.8883	47
15.8957	49
15.9031	50
15.9105	45
15.9179	61
15.9253	41
15.9327	38
15.9401	44
15.9475	29
15.9549	35
15.9623	38
15.9696	37
15.9770	40
15.9844	46
15.9918	37
15.9992	52
16.0066	49
16.0140	42
16.0214	38
16.0288	49
16.0362	41
16.0436	47
16.0510	51
16.0584	34
16.0658	43
16.0732	44
16.0806	46
16.0880	35
16.0954	44
16.1028	41
16.1102	45
16.1176	59
16.1249	46
16.1323	37
16.1397	48
16.1471	34
16.1545	46
16.1619	38
16.1693	44
16.1767	37
16.1841	40
16.1915	42
16.1989	32
16.2063	56
16.2137	49
16.2211	53
16.2285	53
16.2359	41
16.2433	42
16.2507	42
16.2581	40
16.2655	24
16.2729	47
16.2802	41
16.2876	43
16.2950	42
16.3024	46
16.3098	39
16.3172	39
16.3246	43
16.3320	50
16.3394	43
16.3468	52
16.3542	50
16.3616	60
16.3690	33
16.3764	42
16.3838	28
16.3912	34
16.3986	49
16.4060	42
16.4134	40
16.4208	45
16.4282	46
16.4355	49
16.4429	54
16.4503	54
16.4577	47
16.4651	43
16.4725	40
16.4799	29
16.4873	44
16.4947	51
16.5021	46
16.5095	47
16.5169	34
16.5243	47
16.5317	47
16.5391	51
16.5465	41
16.5539	52
16.5613	43
16.5687	60
16.5761	51
16.5835	57
16.5908	39
16.5982	67
16.6056	65
16.6130	52
16.6204	60
16.6278	59
16.6352	51
16.6426	47
16.6500	56
16.6574	56
16.6648	72
16.6722	56
16.6796	56
16.6870	65
16.6944	52
16.7018	64
16.7092	71
16.7166	75
16.7240	57
16.7314	64
16.7388	83
16.7461	94
16.7535	86
16.7609	95
16.7683	93
16.7757	112
16.7831	101
16.7905	127
16.7979	129
16.8053	142
16.8127	130
16.8201	142
16.8275	160
16.8349	156
16.8423	163
16.8497	155
16.8571	148
16.8645	161
16.8719	166
16.8793	130
16.8867	125
16.8941	112
16.9014	118
16.9088	112
16.9162	114
16.9236	106
16.9310	114
16.9384	99
16.9458	111
16.9532	143
16.9606	141
16.9680	157
16.9754	179
16.9828	195
16.9902	199
16.9976	202
17.0050	252
17.0124	237
17.0198	297
17.0272	300
17.0346	372
17.0420	345
17.0494	372
17.0567	375
17.0641	380
17.0715	342
17.0789	310
17.0863	270
17.0937	309
17.1011	247
17.1085	231
17.1159	203
17.1233	183
17.1307	164
17.1381	143
17.1455	111
17.1529	94
17.1603	82
17.1677	75
17.1751	60
17.1825	66
17.1899	70
17.1973	68
17.2047	80
17.2120	67
17.2194	48
17.2268	63
17.2342	51
17.2416	59
17.2490	63
17.2564	53
17.2638	61
17.2712	54
17.2786	43
17.2860	44
17.2934	50
17.3008	46
17.3082	35
17.3156	50
17.3230	37
17.3304	46
17.3378	43
17.3452	60
17.3526	60
17.3600	63
17.3674	48
17.3747	46
17.3821	48
17.3895	58
17.3969	52
17.4043	32
17.4117	50
17.4191	44
17.4265	34
17.4339	48
17.4413	47
17.4487	43
17.4561	46
17.4635	47
17.4709	42
17.4783	60
17.4857	49
17.4931	38
17.5005	42
17.5079	49
17.5153	40
17.5227	46
17.5300	33
17.5374	47
17.5448	43
17.5522	58
17.5596	45
17.5670	48
17.5744	49
17.5818	48
17.5892	53
17.5966	48
17.6040	45
17.6114	48
17.6188	44
17.6262	50
17.6336	46
17.6410	45
17.6484	45
17.6558	42
17.6632	51
17.6706	75
17.6780	68
17.6853	60
17.6927	62
17.7001	70
17.7075	75
17.7149	80
17.7223	80
17.7297	85
17.7371	80
17.7445	94
17.7519	97
17.7593	92
17.7667	121
17.7741	134
17.7815	126
17.7889	142
17.7963	161
17.8037	153
17.8111	183
17.8185	207
17.8259	218
17.8333	243
17.8406	238
17.8480	252
17.8554	256
17.8628	282
17.8702	232
17.8776	237
17.8850	209
17.8924	177
17.8998	174
17.9072	169
17.9146	148
17.9220	138
17.9294	124
17.9368	119
17.9442	94
17.9516	88
17.9590	71
17.9664	71
17.9738	57
17.9812	71
17.9886	53
17.9959	59
18.0033	57
18.0107	64
18.0181	44
18.0255	60
18.0329	49
18.0403	42
18.0477	48
18.0551	50
18.0625	46
18.0699	41
18.0773	52
18.0847	60
18.0921	55
18.0995	43
18.1069	59
18.1143	40
18.1217	38
18.1291	40
18.1365	55
18.1439	41
18.1512	53
18.1586	50
18.1660	51
18.1734	39
18.1808	57
18.1882	64
18.1956	55
18.2030	47
18.2104	50
18.2178	50
18.2252	56
18.2326	69
18.2400	56
18.2474	56
18.2548	44
18.2622	44
18.2696	57
18.2770	49
18.2844	55
18.2918	31
18.2992	60
18.3065	58
18.3139	46
18.3213	55
18.3287	45
18.3361	52
18.3435	48
18.3509	64
18.3583	58
18.3657	40
18.3731	46
18.3805	66
18.3879	65
18.3953	72
18.4027	62
18.4101	75
18.4175	61
18.4249	64
18.4323	83
18.4397	72
18.4471	98
18.4545	98
18.4618	91
18.4692	97
18.4766	98
18.4840	125
18.4914	144
18.4988	162
18.5062	161
18.5136	186
18.5210	187
18.5284	218
18.5358	241
18.5432	254
18.5506	257
18.5580	335
18.5654	328
18.5728	355
18.5802	341
18.5876	347
18.5950	337
18.6024	355
18.6098	320
18.6171	333
18.6245	322
18.6319	286
18.6393	283
18.6467	310
18.6541	299
18.6615	279
18.6689	235
18.6763	257
18.6837	203
18.6911	208
18.6985	206
18.7059	167
18.7133	124
18.7207	121
18.7281	102
18.7355	112
18.7429	95
18.7503	90
18.7577	84
18.7651	62
18.7724	73
18.7798	80
18.7872	65
18.7946	68
18.8020	77
18.8094	67
18.8168	49
18.8242	57
18.8316	60
18.8390	47
18.8464	61
18.8538	42
18.8612	45
18.8686	66
18.8760	50
18.8834	55
18.8908	48
18.8982	68
18.9056	42
18.9130	37
18.9204	46
18.9278	41
18.9351	43
18.9425	43
18.9499	48
18.9573	40
18.9647	60
18.9721	51
18.9795	40
18.9869	58
18.9943	59
19.0017	41
19.0091	48
19.0165	53
19.0239	44
19.0313	56
19.0387	37
19.0461	43
19.0535	49
19.0609	44
19.0683	47
19.0757	47
19.0831	57
19.0904	38
19.0978	48
19.1052	46
19.1126	51
19.1200	38
19.1274	39
19.1348	45
19.1422	49
19.1496	40
19.1570	50
19.1644	45
19.1718	46
19.1792	52
19.1866	47
19.1940	47
19.2014	49
19.2088	46
19.2162	45
19.2236	49
19.2310	52
19.2384	44
19.2457	58
19.2531	45
19.2605	57
19.2679	45
19.2753	35
19.2827	44
19.2901	46
19.2975	49
19.3049	41
19.3123	49
19.3197	57
19.3271	48
19.3345	48
19.3419	37
19.3493	62
19.3567	63
19.3641	51
19.3715	67
19.3789	83
19.3863	68
19.3937	64
19.4010	78
19.4084	81
19.4158	74
19.4232	90
19.4306	98
19.4380	98
19.4454	123
19.4528	149
19.4602	130
19.4676	139
19.4750	163
19.4824	148
19.4898	152
19.4972	139
19.5046	131
19.5120	145
19.5194	131
19.5268	103
19.5342	80
19.5416	90
19.5490	99
19.5563	78
19.5637	73
19.5711	89
19.5785	75
19.5859	70
19.5933	58
19.6007	65
19.6081	60
19.6155	68
19.6229	44
19.6303	54
19.6377	47
19.6451	49
19.6525	58
19.6599	43
19.6673	60
19.6747	54
19.6821	43
19.6895	39
19.6969	60
19.7043	50
19.7116	55
19.7190	49
19.7264	43
19.7338	37
19.7412	42
19.7486	40
19.7560	44
19.7634	43
19.7708	53
19.7782	49
19.7856	39
19.7930	54
19.8004	54
19.8078	44
19.8152	47
19.8226	56
19.8300	41
19.8374	46
19.8448	55
19.8522	54
19.8596	65
19.8669	48
19.8743	57
19.8817	43
19.8891	45
19.8965	54
19.9039	48
19.9113	42
19.9187	41
19.9261	51
19.9335	37
19.9409	35
19.9483	47
19.9557	51
19.9631	42
19.9705	40
19.9779	48
19.9853	47
19.9927	45
20.0001	61
20.0075	42
20.0149	51
20.0222	49
20.0296	48
20.0370	50
20.0444	50
20.0518	47
20.0592	45
20.0666	37
20.0740	46
20.0814	45
20.0888	44
20.0962	54
20.1036	48
20.1110	37
20.1184	49
20.1258	42
20.1332	40
20.1406	49
20.1480	56
20.1554	55
20.1628	60
20.1702	63
20.1775	60
20.1849	44
20.1923	56
20.1997	46
20.2071	42
20.2145	51
20.2219	73
20.2293	53
20.2367	39
20.2441	48
20.2515	49
20.2589	56
20.2663	55
20.2737	48
20.2811	60
20.2885	52
20.2959	57
20.3033	75
20.3107	61
20.3181	75
20.3255	72
20.3328	67
20.3402	64
20.3476	63
20.3550	59
20.3624	86
20.3698	59
20.3772	83
20.3846	78
20.3920	80
20.3994	90
20.4068	115
20.4142	116
20.4216	111
20.4290	115
20.4364	147
20.4438	131
20.4512	163
20.4586	132
20.4660	194
20.4734	200
20.4808	211
20.4882	217
20.4955	254
20.5029	299
20.5103	262
20.5177	324
20.5251	329
20.5325	332
20.5399	342
20.5473	326
20.5547	318
20.5621	327
20.5695	302
20.5769	317
20.5843	238
20.5917	299
20.5991	233
20.6065	234
20.6139	204
20.6213	177
20.6287	163
20.6361	184
20.6435	145
20.6508	139
20.6582	124
20.6656	99
20.6730	111
20.6804	90
20.6878	97
20.6952	88
20.7026	80
20.7100	79
20.7174	79
20.7248	63
20.7322	86
20.7396	60
20.7470	75
20.7544	71
20.7618	70
20.7692	70
20.7766	69
20.7840	62
20.7914	78
20.7988	68
20.8061	78
20.8135	59
20.8209	51
20.8283	68
20.8357	80
20.8431	55
20.8505	84
20.8579	77
20.8653	88
20.8727	91
20.8801	95
20.8875	86
20.8949	116
20.9023	109
20.9097	112
20.9171	124
20.9245	132
20.9319	150
20.9393	148
20.9467	175
20.9541	135
20.9614	148
20.9688	167
20.9762	125
20.9836	138
20.9910	122
20.9984	136
21.0058	120
21.0132	120
21.0206	100
21.0280	93
21.0354	107
21.0428	87
21.0502	96
21.0576	80
21.0650	72
21.0724	77
21.0798	60
21.0872	67
21.0946	60
21.1020	72
21.1094	74
21.1167	65
21.1241	41
21.1315	80
21.1389	64
21.1463	73
21.1537	57
21.1611	58
21.1685	75
21.1759	68
21.1833	62
21.1907	70
21.1981	70
21.2055	62
21.2129	99
21.2203	71
21.2277	78
21.2351	86
21.2425	75
21.2499	85
21.2573	85
21.2647	81
21.2720	92
21.2794	80
21.2868	91
21.2942	91
21.3016	83
21.3090	81
21.3164	88
21.3238	85
21.3312	76
21.3386	89
21.3460	94
21.3534	88
21.3608	105
21.3682	104
21.3756	101
21.3830	122
21.3904	116
21.3978	97
21.4052	117
21.4126	153
21.4200	127
21.4273	138
21.4347	158
21.4421	184
21.4495	186
21.4569	212
21.4643	228
21.4717	259
21.4791	278
21.4865	329
21.4939	352
21.5013	378
21.5087	419
21.5161	408
21.5235	473
21.5309	461
21.5383	510
21.5457	498
21.5531	430
21.5605	452
21.5679	387
21.5753	387
21.5826	373
21.5900	380
21.5974	361
21.6048	302
21.6122	280
21.6196	262
21.6270	265
21.6344	258
21.6418	226
21.6492	249
21.6566	217
21.6640	223
21.6714	204
21.6788	203
21.6862	204
21.6936	237
21.7010	233
21.7084	225
21.7158	251
21.7232	222
21.7306	244
21.7379	244
21.7453	259
21.7527	252
21.7601	270
21.7675	230
21.7749	282
21.7823	264
21.7897	255
21.7971	280
21.8045	295
21.8119	297
21.8193	321
21.8267	318
21.8341	355
21.8415	359
21.8489	379
21.8563	396
21.8637	422
21.8711	501
21.8785	555
21.8859	576
21.8932	723
21.9006	801
21.9080	922
21.9154	1020
21.9228	1180
21.9302	1311
21.9376	1589
21.9450	1746
21.9524	1923
21.9598	2074
21.9672	2261
21.9746	2491
21.9820	2510
21.9894	2590
21.9968	2522
22.0042	2547
22.0116	2448
22.0190	2450
22.0264	2156
22.0338	2029
22.0412	1925
22.0485	1764
22.0559	1636
22.0633	1431
22.0707	1236
22.0781	1029
22.0855	906
22.0929	794
22.1003	696
22.1077	583
22.1151	482
22.1225	462
22.1299	354
22.1373	361
22.1447	350
22.1521	283
22.1595	251
22.1669	214
22.1743	233
22.1817	197
22.1891	179
22.1965	196
22.2039	185
22.2112	155
22.2186	156
22.2260	156
22.2334	133
22.2408	127
22.2482	122
22.2556	131
22.2630	119
22.2704	115
22.2778	110
22.2852	86
22.2926	110
22.3000	112
22.3074	112
22.3148	125
22.3222	82
22.3296	100
22.3370	100
22.3444	111
22.3518	88
22.3592	76
22.3665	93
22.3739	88
22.3813	94
22.3887	109
22.3961	94
22.4035	82
22.4109	80
22.4183	79
22.4257	71
22.4331	103
22.4405	93
22.4479	93
22.4553	75
22.4627	83
22.4701	76
22.4775	81
22.4849	66
22.4923	79
22.4997	96
22.5071	89
22.5145	83
22.5218	76
22.5292	91
22.5366	81
22.5440	91
22.5514	56
22.5588	72
22.5662	70
22.5736	76
22.5810	95
22.5884	84
22.5958	82
22.6032	84
22.6106	107
22.6180	89
22.6254	84
22.6328	75
22.6402	95
22.6476	93
22.6550	94
22.6624	104
22.6698	90
22.6771	122
22.6845	96
22.6919	119
22.6993	124
22.7067	137
22.7141	147
22.7215	160
22.7289	184
22.7363	168
22.7437	197
22.7511	202
22.7585	197
22.7659	195
22.7733	204
22.7807	182
22.7881	205
22.7955	167
22.8029	181
22.8103	176
22.8177	177
22.8251	157
22.8324	148
22.8398	120
22.8472	112
22.8546	121
22.8620	111
22.8694	102
22.8768	94
22.8842	78
22.8916	97
22.8990	93
22.9064	92
22.9138	68
22.9212	84
22.9286	84
22.9360	78
22.9434	76
22.9508	87
22.9582	68
22.9656	69
22.9730	85
22.9804	68
22.9877	68
22.9951	60
23.0025	68
23.0099	79
23.0173	74
23.0247	61
23.0321	69
23.0395	64
23.0469	92
23.0543	69
23.0617	78
23.0691	66
23.0765	67
23.0839	54
23.0913	77
23.0987	72
23.1061	49
23.1135	65
23.1209	73
23.1283	64
23.1357	60
23.1430	77
23.1504	75
23.1578	53
23.1652	78
23.1726	74
23.1800	62
23.1874	73
23.1948	83
23.2022	86
23.2096	61
23.2170	71
23.2244	64
23.2318	73
23.2392	72
23.2466	68
23.2540	81
23.2614	68
23.2688	76
23.2762	67
23.2836	69
23.2910	65
23.2983	72
23.3057	88
23.3131	72
23.3205	78
23.3279	70
23.3353	60
23.3427	75
23.3501	75
23.3575	90
23.3649	81
23.3723	79
23.3797	95
23.3871	103
23.3945	86
23.4019	96
23.4093	103
23.4167	89
23.4241	122
23.4315	125
23.4389	125
23.4463	164
23.4536	179
23.4610	142
23.4684	164
23.4758	177
23.4832	184
23.4906	204
23.4980	199
23.5054	194
23.5128	184
23.5202	203
23.5276	154
23.5350	178
23.5424	166
23.5498	181
23.5572	149
23.5646	151
23.5720	142
23.5794	129
23.5868	147
23.5942	127
23.6016	108
23.6089	109
23.6163	105
23.6237	107
23.6311	101
23.6385	99
23.6459	86
23.6533	99
23.6607	78
23.6681	86
23.6755	77
23.6829	74
23.6903	78
23.6977	86
23.7051	81
23.7125	81
23.7199	75
23.7273	89
23.7347	92
23.7421	83
23.7495	57
23.7569	70
23.7643	81
23.7716	84
23.7790	87
23.7864	74
23.7938	93
23.8012	86
23.8086	91
23.8160	105
23.8234	89
23.8308	83
23.8382	96
23.8456	82
23.8530	102
23.8604	116
23.8678	127
23.8752	104
23.8826	132
23.8900	139
23.8974	130
23.9048	147
23.9122	143
23.9196	166
23.9269	162
23.9343	176
23.9417	187
23.9491	234
23.9565	219
23.9639	229
23.9713	276
23.9787	271
23.9861	299
23.9935	311
24.0009	299
24.0083	292
24.0157	298
24.0231	326
24.0305	293
24.0379	289
24.0453	295
24.0527	280
24.0601	280
24.0675	254
24.0749	256
24.0822	188
24.0896	202
24.0970	189
24.1044	196
24.1118	156
24.1192	142
24.1266	157
24.1340	139
24.1414	123
24.1488	112
24.1562	121
24.1636	114
24.1710	89
24.1784	104
24.1858	107
24.1932	107
24.2006	110
24.2080	101
24.2154	108
24.2228	114
24.2302	104
24.2375	101
24.2449	125
24.2523	99
24.2597	124
24.2671	105
24.2745	133
24.2819	159
24.2893	141
24.2967	182
24.3041	160
24.3115	178
24.3189	164
24.3263	178
24.3337	174
24.3411	213
24.3485	212
24.3559	209
24.3633	238
24.3707	236
24.3781	269
24.3855	291
24.3928	259
24.4002	291
24.4076	299
24.4150	269
24.4224	277
24.4298	226
24.4372	249
24.4446	230
24.4520	225
24.4594	222
24.4668	193
24.4742	193
24.4816	159
24.4890	183
24.4964	160
24.5038	157
24.5112	155
24.5186	104
24.5260	132
24.5334	120
24.5408	110
24.5481	93
24.5555	81
24.5629	105
24.5703	77
24.5777	97
24.5851	88
24.5925	85
24.5999	83
24.6073	81
24.6147	92
24.6221	83
24.6295	106
24.6369	83
24.6443	85
24.6517	77
24.6591	95
24.6665	74
24.6739	79
24.6813	78
24.6887	72
24.6961	78
24.7034	97
24.7108	84
24.7182	117
24.7256	103
24.7330	89
24.7404	105
24.7478	93
24.7552	110
24.7626	107
24.7700	107
24.7774	122
24.7848	130
24.7922	149
24.7996	135
24.8070	167
24.8144	154
24.8218	134
24.8292	161
24.8366	150
24.8440	139
24.8514	132
24.8587	131
24.8661	169
24.8735	118
24.8809	120
24.8883	112
24.8957	115
24.9031	109
24.9105	104
24.9179	90
24.9253	87
24.9327	89
24.9401	73
24.9475	89
24.9549	81
24.9623	93
24.9697	85
24.9771	87
24.9845	65
24.9919	66
24.9993	75
25.0067	70
25.0140	82
25.0214	79
25.0288	97
25.0362	65
25.0436	79
25.0510	72
25.0584	72
25.0658	75
25.0732	82
25.0806	79
25.0880	77
25.0954	77
25.1028	88
25.1102	72
25.1176	74
25.1250	79
25.1324	72
25.1398	78
25.1472	68
25.1546	72
25.1620	75
25.1693	61
25.1767	71
25.1841	91
25.1915	74
25.1989	72
25.2063	84
25.2137	83
25.2211	88
25.2285	84
25.2359	80
25.2433	91
25.2507	101
25.2581	90
25.2655	87
25.2729	81
25.2803	101
25.2877	95
25.2951	108
25.3025	110
25.3099	110
25.3173	104
25.3247	115
25.3320	106
25.3394	98
25.3468	117
25.3542	144
25.3616	141
25.3690	141
25.3764	148
25.3838	170
25.3912	180
25.3986	178
25.4060	212
25.4134	233
25.4208	242
25.4282	269
25.4356	290
25.4430	296
25.4504	333
25.4578	386
25.4652	421
25.4726	435
25.4800	559
25.4873	545
25.4947	599
25.5021	658
25.5095	638
25.5169	634
25.5243	652
25.5317	663
25.5391	605
25.5465	593
25.5539	599
25.5613	576
25.5687	535
25.5761	539
25.5835	518
25.5909	442
25.5983	447
25.6057	439
25.6131	425
25.6205	384
25.6279	377
25.6353	370
25.6426	378
25.6500	354
25.6574	317
25.6648	334
25.6722	323
25.6796	289
25.6870	280
25.6944	296
25.7018	247
25.7092	282
25.7166	231
25.7240	243
25.7314	227
25.7388	198
25.7462	205
25.7536	175
25.7610	198
25.7684	163
25.7758	166
25.7832	145
25.7906	161
25.7979	161
25.8053	186
25.8127	157
25.8201	157
25.8275	168
25.8349	149
25.8423	166
25.8497	143
25.8571	159
25.8645	151
25.8719	174
25.8793	179
25.8867	150
25.8941	173
25.9015	157
25.9089	160
25.9163	150
25.9237	132
25.9311	149
25.9385	152
25.9459	150
25.9532	133
25.9606	144
25.9680	123
25.9754	103
25.9828	108
25.9902	133
25.9976	97
26.0050	127
26.0124	97
26.0198	104
26.0272	100
26.0346	104
26.0420	88
26.0494	115
26.0568	81
26.0642	92
26.0716	92
26.0790	96
26.0864	95
26.0938	99
26.1012	99
26.1085	103
26.1159	99
26.1233	98
26.1307	96
26.1381	93
26.1455	91
26.1529	96
26.1603	90
26.1677	91
26.1751	99
26.1825	103
26.1899	121
26.1973	111
26.2047	92
26.2121	95
26.2195	105
26.2269	121
26.2343	112
26.2417	104
26.2491	116
26.2565	122
26.2638	118
26.2712	113
26.2786	121
26.2860	141
26.2934	111
26.3008	125
26.3082	122
26.3156	126
26.3230	144
26.3304	163
26.3378	147
26.3452	160
26.3526	160
26.3600	181
26.3674	175
26.3748	171
26.3822	205
26.3896	202
26.3970	228
26.4044	204
26.4118	255
26.4191	263
26.4265	294
26.4339	287
26.4413	272
26.4487	333
26.4561	351
26.4635	377
26.4709	352
26.4783	431
26.4857	478
26.4931	526
26.5005	572
26.5079	586
26.5153	624
26.5227	647
26.5301	685
26.5375	693
26.5449	722
26.5523	728
26.5597	685
26.5671	690
26.5744	718
26.5818	661
26.5892	640
26.5966	655
26.6040	621
26.6114	582
26.6188	590
26.6262	517
26.6336	470
26.6410	503
26.6484	451
26.6558	428
26.6632	373
26.6706	340
26.6780	353
26.6854	297
26.6928	285
26.7002	259
26.7076	263
26.7150	215
26.7224	196
26.7297	194
26.7371	168
26.7445	187
26.7519	165
26.7593	164
26.7667	146
26.7741	125
26.7815	121
26.7889	128
26.7963	141
26.8037	132
26.8111	121
26.8185	111
26.8259	108
26.8333	93
26.8407	117
26.8481	130
26.8555	116
26.8629	109
26.8703	108
26.8777	104
26.8850	98
26.8924	97
26.8998	115
26.9072	92
26.9146	95
26.9220	90
26.9294	114
26.9368	84
26.9442	105
26.9516	95
26.9590	98
26.9664	91
26.9738	89
26.9812	76
26.9886	94
26.9960	85
27.0034	72
27.0108	97
27.0182	91
27.0256	82
27.0330	94
27.0404	78
27.0477	89
27.0551	78
27.0625	76
27.0699	79
27.0773	85
27.0847	96
27.0921	99
27.0995	84
27.1069	90
27.1143	82
27.1217	87
27.1291	84
27.1365	105
27.1439	93
27.1513	86
27.1587	90
27.1661	82
27.1735	91
27.1809	82
27.1883	107
27.1957	75
27.2030	85
27.2104	96
27.2178	101
27.2252	91
27.2326	81
27.2400	75
27.2474	82
27.2548	91
27.2622	109
27.2696	93
27.2770	77
27.2844	117
27.2918	128
27.2992	114
27.3066	110
27.3140	125
27.3214	136
27.3288	135
27.3362	154
27.3436	155
27.3510	133
27.3583	143
27.3657	144
27.3731	178
27.3805	202
27.3879	189
27.3953	215
27.4027	245
27.4101	258
27.4175	309
27.4249	304
27.4323	315
27.4397	364
27.4471	390
27.4545	416
27.4619	476
27.4693	504
27.4767	553
27.4841	572
27.4915	617
27.4989	611
27.5063	561
27.5136	573
27.5210	567
27.5284	568
27.5358	544
27.5432	569
27.5506	459
27.5580	474
27.5654	415
27.5728	382
27.5802	354
27.5876	381
27.5950	369
27.6024	318
27.6098	275
27.6172	264
27.6246	245
27.6320	202
27.6394	216
27.6468	172
27.6542	174
27.6616	176
27.6689	144
27.6763	120
27.6837	138
27.6911	129
27.6985	109
27.7059	114
27.7133	141
27.7207	130
27.7281	112
27.7355	112
27.7429	82
27.7503	97
27.7577	92
27.7651	81
27.7725	90
27.7799	91
27.7873	83
27.7947	77
27.8021	77
27.8095	94
27.8169	79
27.8242	85
27.8316	73
27.8390	76
27.8464	78
27.8538	74
27.8612	78
27.8686	76
27.8760	92
27.8834	97
27.8908	70
27.8982	69
27.9056	94
27.9130	75
27.9204	76
27.9278	75
27.9352	64
27.9426	70
27.9500	67
27.9574	77
27.9648	79
27.9722	81
27.9795	85
27.9869	70
27.9943	67
28.0017	74
28.0091	83
28.0165	76
28.0239	67
28.0313	77
28.0387	68
28.0461	72
28.0535	73
28.0609	60
28.0683	73
28.0757	82
28.0831	82
28.0905	60
28.0979	72
28.1053	73
28.1127	74
28.1201	74
28.1275	90
28.1348	74
28.1422	73
28.1496	76
28.1570	84
28.1644	74
28.1718	81
28.1792	78
28.1866	80
28.1940	75
28.2014	74
28.2088	77
28.2162	97
28.2236	84
28.2310	86
28.2384	81
28.2458	91
28.2532	88
28.2606	67
28.2680	84
28.2754	89
28.2828	98
28.2901	110
28.2975	105
28.3049	123
28.3123	97
28.3197	99
28.3271	108
28.3345	114
28.3419	111
28.3493	116
28.3567	124
28.3641	159
28.3715	138
28.3789	151
28.3863	155
28.3937	170
28.4011	184
28.4085	210
28.4159	225
28.4233	241
28.4307	220
28.4381	259
28.4454	249
28.4528	257
28.4602	301
28.4676	279
28.4750	255
28.4824	267
28.4898	285
28.4972	244
28.5046	273
28.5120	291
28.5194	267
28.5268	223
28.5342	254
28.5416	251
28.5490	204
28.5564	233
28.5638	171
28.5712	169
28.5786	165
28.5860	148
28.5934	149
28.6008	132
28.6081	114
28.6155	119
28.6229	119
28.6303	107
28.6377	106
28.6451	106
28.6525	105
28.6599	100
28.6673	86
28.6747	106
28.6821	78
28.6895	94
28.6969	88
28.7043	88
28.7117	71
28.7191	79
28.7265	90
28.7339	91
28.7413	71
28.7487	98
28.7561	92
28.7634	72
28.7708	90
28.7782	72
28.7856	75
28.7930	71
28.8004	79
28.8078	92
28.8152	77
28.8226	77
28.8300	59
28.8374	95
28.8448	79
28.8522	87
28.8596	93
28.8670	88
28.8744	90
28.8818	74
28.8892	72
28.8966	83
28.9040	75
28.9114	88
28.9187	94
28.9261	97
28.9335	95
28.9409	89
28.9483	100
28.9557	120
28.9631	118
28.9705	127
28.9779	124
28.9853	140
28.9927	162
29.0001	166
29.0075	177
29.0149	163
29.0223	158
29.0297	180
29.0371	169
29.0445	161
29.0519	158
29.0593	146
29.0667	135
29.0740	156
29.0814	148
29.0888	99
29.0962	118
29.1036	122
29.1110	124
29.1184	133
29.1258	109
29.1332	119
29.1406	115
29.1480	93
29.1554	94
29.1628	82
29.1702	86
29.1776	83
29.1850	77
29.1924	76
29.1998	75
29.2072	72
29.2146	66
29.2220	87
29.2293	76
29.2367	67
29.2441	73
29.2515	79
29.2589	98
29.2663	63
29.2737	62
29.2811	50
29.2885	80
29.2959	58
29.3033	78
29.3107	66
29.3181	70
29.3255	62
29.3329	60
29.3403	46
29.3477	46
29.3551	63
29.3625	72
29.3699	55
29.3773	75
29.3846	57
29.3920	55
29.3994	55
29.4068	51
29.4142	58
29.4216	63
29.4290	63
29.4364	63
29.4438	61
29.4512	74
29.4586	53
29.4660	71
29.4734	51
29.4808	65
29.4882	71
29.4956	69
29.5030	76
29.5104	48
29.5178	59
29.5252	72
29.5326	57
29.5399	54
29.5473	59
29.5547	69
29.5621	56
29.5695	68
29.5769	59
29.5843	60
29.5917	65
29.5991	75
29.6065	69
29.6139	67
29.6213	56
29.6287	60
29.6361	69
29.6435	71
29.6509	52
29.6583	67
29.6657	57
29.6731	55
29.6805	54
29.6879	60
29.6952	56
29.7026	52
29.7100	53
29.7174	75
29.7248	55
29.7322	57
29.7396	63
29.7470	61
29.7544	43
29.7618	57
29.7692	64
29.7766	71
29.7840	50
29.7914	64
29.7988	52
29.8062	60
29.8136	57
29.8210	67
29.8284	55
29.8358	46
29.8432	69
29.8505	58
29.8579	58
29.8653	59
29.8727	64
29.8801	54
29.8875	57
29.8949	54
29.9023	77
29.9097	58
29.9171	60
29.9245	59
29.9319	51
29.9393	58
29.9467	53
29.9541	71
29.9615	53
29.9689	57
29.9763	64
29.9837	52
29.9911	60
29.9985	67
30.0058	69
30.0132	53
30.0206	46
30.0280	57
30.0354	61
30.0428	56
30.0502	80
30.0576	60
30.0650	72
30.0724	61
30.0798	53
30.0872	62
30.0946	62
30.1020	57
30.1094	62
30.1168	51
30.1242	51
30.1316	55
30.1390	69
30.1464	61
30.1538	48
30.1612	52
30.1685	52
30.1759	57
30.1833	50
30.1907	65
30.1981	47
30.2055	46
30.2129	51
30.2203	47
30.2277	49
30.2351	56
30.2425	58
30.2499	62
30.2573	60
30.2647	57
30.2721	53
30.2795	53
30.2869	62
30.2943	56
30.3017	47
30.3091	49
30.3165	66
30.3238	58
30.3312	67
30.3386	50
30.3460	89
30.3534	64
30.3608	52
30.3682	70
30.3756	64
30.3830	59
30.3904	61
30.3978	60
30.4052	59
30.4126	64
30.4200	67
30.4274	66
30.4348	76
30.4422	68
30.4496	67
30.4570	75
30.4644	74
30.4718	79
30.4791	69
30.4865	79
30.4939	89
30.5013	88
30.5087	70
30.5161	92
30.5235	110
30.5309	80
30.5383	72
30.5457	99
30.5531	87
30.5605	101
30.5679	96
30.5753	87
30.5827	104
30.5901	82
30.5975	84
30.6049	97
30.6123	86
30.6197	71
30.6271	81
30.6344	93
30.6418	79
30.6492	92
30.6566	55
30.6640	77
30.6714	78
30.6788	74
30.6862	85
30.6936	80
30.7010	61
30.7084	59
30.7158	66
30.7232	56
30.7306	66
30.7380	74
30.7454	47
30.7528	78
30.7602	47
30.7676	47
30.7750	60
30.7824	61
30.7897	61
30.7971	64
30.8045	60
30.8119	53
30.8193	75
30.8267	68
30.8341	64
30.8415	55
30.8489	60
30.8563	71
30.8637	52
30.8711	50
30.8785	60
30.8859	70
30.8933	51
30.9007	46
30.9081	58
30.9155	47
30.9229	56
30.9303	59
30.9377	43
30.9450	56
30.9524	58
30.9598	63
30.9672	64
30.9746	45
30.9820	53
30.9894	57
30.9968	60
31.0042	44
31.0116	64
31.0190	62
31.0264	55
31.0338	72
31.0412	52
31.0486	53
31.0560	59
31.0634	65
31.0708	71
31.0782	46
31.0856	61
31.0930	56
31.1003	59
31.1077	64
31.1151	63
31.1225	56
31.1299	64
31.1373	52
31.1447	64
31.1521	64
31.1595	75
31.1669	63
31.1743	65
31.1817	45
31.1891	70
31.1965	64
31.2039	66
31.2113	61
31.2187	55
31.2261	72
31.2335	71
31.2409	67
31.2483	70
31.2556	50
31.2630	49
31.2704	65
31.2778	75
31.2852	61
31.2926	78
31.3000	61
31.3074	70
31.3148	96
31.3222	97
31.3296	85
31.3370	96
31.3444	90
31.3518	76
31.3592	102
31.3666	106
31.3740	105
31.3814	117
31.3888	101
31.3962	105
31.4036	121
31.4109	112
31.4183	131
31.4257	117
31.4331	139
31.4405	133
31.4479	119
31.4553	141
31.4627	122
31.4701	116
31.4775	136
31.4849	139
31.4923	129
31.4997	123
31.5071	98
31.5145	124
31.5219	114
31.5293	112
31.5367	124
31.5441	113
31.5515	101
31.5589	112
31.5662	116
31.5736	94
31.5810	104
31.5884	106
31.5958	95
31.6032	101
31.6106	99
31.6180	104
31.6254	95
31.6328	106
31.6402	95
31.6476	87
31.6550	72
31.6624	75
31.6698	94
31.6772	95
31.6846	77
31.6920	76
31.6994	85
31.7068	84
31.7142	94
31.7215	83
31.7289	86
31.7363	86
31.7437	68
31.7511	71
31.7585	61
31.7659	76
31.7733	73
31.7807	73
31.7881	77
31.7955	79
31.8029	66
31.8103	69
31.8177	54
31.8251	83
31.8325	78
31.8399	77
31.8473	69
31.8547	70
31.8621	73
31.8695	76
31.8769	66
31.8842	88
31.8916	95
31.8990	69
31.9064	77
31.9138	65
31.9212	97
31.9286	89
31.9360	64
31.9434	90
31.9508	93
31.9582	81
31.9656	92
31.9730	67
31.9804	83
31.9878	77
31.9952	80
32.0026	88
32.0100	80
32.0174	82
32.0248	80
32.0322	75
32.0395	75
32.0469	72
32.0543	59
32.0617	93
32.0691	77
32.0765	75
32.0839	71
32.0913	71
32.0987	75
32.1061	69
32.1135	60
32.1209	55
32.1283	57
32.1357	59
32.1431	59
32.1505	62
32.1579	78
32.1653	62
32.1727	66
32.1801	66
32.1875	66
32.1948	51
32.2022	62
32.2096	66
32.2170	48
32.2244	52
32.2318	73
32.2392	55
32.2466	65
32.2540	66
32.2614	54
32.2688	71
32.2762	56
32.2836	46
32.2910	61
32.2984	63
32.3058	57
32.3132	70
32.3206	65
32.3280	49
32.3354	54
32.3428	49
32.3501	58
32.3575	51
32.3649	60
32.3723	60
32.3797	56
32.3871	66
32.3945	77
32.4019	39
32.4093	63
32.4167	50
32.4241	74
32.4315	53
32.4389	48
32.4463	54
32.4537	54
32.4611	54
32.4685	64
32.4759	74
32.4833	42
32.4907	61
32.4981	68
32.5054	53
32.5128	48
32.5202	67
32.5276	53
32.5350	69
32.5424	57
32.5498	51
32.5572	34
32.5646	43
32.5720	76
32.5794	59
32.5868	54
32.5942	59
32.6016	59
32.6090	45
32.6164	56
32.6238	49
32.6312	65
32.6386	61
32.6460	71
32.6534	59
32.6607	68
32.6681	58
32.6755	43
32.6829	57
32.6903	46
32.6977	61
32.7051	53
32.7125	66
32.7199	56
32.7273	79
32.7347	63
32.7421	63
32.7495	59
32.7569	73
32.7643	50
32.7717	76
32.7791	53
32.7865	69
32.7939	52
32.8013	64
32.8087	58
32.8160	73
32.8234	70
32.8308	55
32.8382	66
32.8456	54
32.8530	56
32.8604	67
32.8678	56
32.8752	58
32.8826	78
32.8900	57
32.8974	60
32.9048	62
32.9122	75
32.9196	64
32.9270	61
32.9344	74
32.9418	56
32.9492	68
32.9566	66
32.9640	75
32.9713	69
32.9787	59
32.9861	69
32.9935	66
33.0009	65
33.0083	61
33.0157	53
33.0231	47
33.0305	70
33.0379	73
33.0453	59
33.0527	70
33.0601	59
33.0675	65
33.0749	65
33.0823	55
33.0897	74
33.0971	65
33.1045	71
33.1119	69
33.1193	63
33.1266	63
33.1340	48
33.1414	61
33.1488	69
33.1562	61
33.1636	56
33.1710	60
33.1784	71
33.1858	67
33.1932	64
33.2006	59
33.2080	73
33.2154	65
33.2228	61
33.2302	75
33.2376	66
33.2450	60
33.2524	72
33.2598	77
33.2672	67
33.2746	64
33.2819	74
33.2893	81
33.2967	89
33.3041	73
33.3115	99
33.3189	85
33.3263	90
33.3337	92
33.3411	89
33.3485	75
33.3559	93
33.3633	84
33.3707	89
33.3781	90
33.3855	82
33.3929	97
33.4003	113
33.4077	97
33.4151	83
33.4225	107
33.4299	82
33.4373	102
33.4446	98
33.4520	127
33.4594	105
33.4668	114
33.4742	106
33.4816	144
33.4890	132
33.4964	135
33.5038	132
33.5112	160
33.5186	144
33.5260	188
33.5334	189
33.5408	199
33.5482	208
33.5556	230
33.5630	205
33.5704	225
33.5778	215
33.5852	203
33.5926	200
33.5999	208
33.6073	235
33.6147	226
33.6221	202
33.6295	184
33.6369	202
33.6443	216
33.6517	198
33.6591	187
33.6665	166
33.6739	157
33.6813	165
33.6887	136
33.6961	167
33.7035	141
33.7109	125
33.7183	122
33.7257	112
33.7331	111
33.7405	78
33.7479	103
33.7552	107
33.7626	85
33.7700	88
33.7774	93
33.7848	101
33.7922	85
33.7996	80
33.8070	91
33.8144	100
33.8218	78
33.8292	73
33.8366	75
33.8440	66
33.8514	61
33.8588	76
33.8662	77
33.8736	60
33.8810	67
33.8884	62
33.8958	62
33.9032	69
33.9105	86
33.9179	73
33.9253	74
33.9327	88
33.9401	72
33.9475	63
33.9549	74
33.9623	75
33.9697	79
33.9771	79
33.9845	65
33.9919	70
33.9993	75
34.0067	76
34.0141	79
34.0215	73
34.0289	65
34.0363	60
34.0437	84
34.0511	65
34.0585	75
34.0658	93
34.0732	74
34.0806	68
34.0880	82
34.0954	80
34.1028	89
34.1102	79
34.1176	79
34.1250	87
34.1324	79
34.1398	79
34.1472	76
34.1546	66
34.1620	85
34.1694	63
34.1768	70
34.1842	67
34.1916	71
34.1990	62
34.2064	79
34.2138	68
34.2211	76
34.2285	70
34.2359	69
34.2433	59
34.2507	73
34.2581	71
34.2655	79
34.2729	53
34.2803	61
34.2877	62
34.2951	75
34.3025	69
34.3099	58
34.3173	49
34.3247	58
34.3321	52
34.3395	74
34.3469	59
34.3543	57
34.3617	58
34.3691	45
34.3764	61
34.3838	58
34.3912	57
34.3986	55
34.4060	48
34.4134	54
34.4208	51
34.4282	53
34.4356	51
34.4430	66
34.4504	45
34.4578	57
34.4652	57
34.4726	48
34.4800	56
34.4874	50
34.4948	42
34.5022	67
34.5096	60
34.5170	55
34.5244	58
34.5317	49
34.5391	56
34.5465	49
34.5539	61
34.5613	55
34.5687	57
34.5761	54
34.5835	59
34.5909	57
34.5983	47
34.6057	61
34.6131	53
34.6205	60
34.6279	75
34.6353	57
34.6427	57
34.6501	45
34.6575	57
34.6649	64
34.6723	51
34.6797	58
34.6870	53
34.6944	50
34.7018	56
34.7092	68
34.7166	64
34.7240	47
34.7314	52
34.7388	58
34.7462	39
34.7536	57
34.7610	64
34.7684	58
34.7758	57
34.7832	60
34.7906	69
34.7980	53
34.8054	53
34.8128	43
34.8202	44
34.8276	59
34.8350	69
34.8423	62
34.8497	58
34.8571	49
34.8645	63
34.8719	53
34.8793	62
34.8867	63
34.8941	51
34.9015	64
34.9089	54
34.9163	56
34.9237	48
34.9311	66
34.9385	63
34.9459	67
34.9533	54
34.9607	56
34.9681	58
34.9755	71
34.9829	54
34.9903	68
34.9977	67
35.0050	91
35.0124	59
35.0198	68
35.0272	81
35.0346	60
35.0420	63
35.0494	61
35.0568	71
35.0642	86
35.0716	59
35.0790	63
35.0864	65
35.0938	63
35.1012	67
35.1086	82
35.1160	66
35.1234	75
35.1308	66
35.1382	93
35.1456	76
35.1530	72
35.1603	83
35.1677	88
35.1751	79
35.1825	75
35.1899	81
35.1973	87
35.2047	92
35.2121	70
35.2195	88
35.2269	61
35.2343	96
35.2417	87
35.2491	72
35.2565	71
35.2639	76
35.2713	78
35.2787	82
35.2861	80
35.2935	68
35.3009	65
35.3083	67
35.3156	66
35.3230	62
35.3304	75
35.3378	72
35.3452	63
35.3526	70
35.3600	61
35.3674	66
35.3748	69
35.3822	56
35.3896	63
35.3970	71
35.4044	61
35.4118	70
35.4192	75
35.4266	61
35.4340	68
35.4414	65
35.4488	68
35.4562	70
35.4636	77
35.4709	77
35.4783	77
35.4857	72
35.4931	63
35.5005	78
35.5079	92
35.5153	83
35.5227	64
35.5301	76
35.5375	88
35.5449	75
35.5523	74
35.5597	76
35.5671	67
35.5745	73
35.5819	66
35.5893	62
35.5967	76
35.6041	53
35.6115	84
35.6189	66
35.6262	62
35.6336	82
35.6410	71
35.6484	69
35.6558	67
35.6632	61
35.6706	56
35.6780	66
35.6854	70
35.6928	64
35.7002	56
35.7076	60
35.7150	58
35.7224	62
35.7298	70
35.7372	57
35.7446	64
35.7520	57
35.7594	73
35.7668	33
35.7742	58
35.7815	52
35.7889	54
35.7963	69
35.8037	73
35.8111	62
35.8185	60
35.8259	60
35.8333	56
35.8407	70
35.8481	63
35.8555	72
35.8629	59
35.8703	58
35.8777	60
35.8851	76
35.8925	60
35.8999	72
35.9073	65
35.9147	62
35.9221	77
35.9295	70
35.9368	82
35.9442	70
35.9516	84
35.9590	77
35.9664	79
35.9738	85
35.9812	94
35.9886	94
35.9960	98
36.0034	103
36.0108	105
36.0182	101
36.0256	112
36.0330	117
36.0404	116
36.0478	127
36.0552	107
36.0626	117
36.0700	143
36.0774	145
36.0848	160
36.0921	147
36.0995	160
36.1069	152
36.1143	133
36.1217	150
36.1291	150
36.1365	150
36.1439	138
36.1513	161
36.1587	135
36.1661	159
36.1735	130
36.1809	150
36.1883	126
36.1957	142
36.2031	120
36.2105	130
36.2179	113
36.2253	104
36.2327	91
36.2401	124
36.2474	95
36.2548	133
36.2622	125
36.2696	111
36.2770	100
36.2844	118
36.2918	106
36.2992	116
36.3066	95
36.3140	115
36.3214	100
36.3288	92
36.3362	109
36.3436	102
36.3510	98
36.3584	111
36.3658	110
36.3732	110
36.3806	97
36.3880	92
36.3954	87
36.4027	96
36.4101	86
36.4175	90
36.4249	95
36.4323	110
36.4397	88
36.4471	85
36.4545	93
36.4619	87
36.4693	76
36.4767	75
36.4841	88
36.4915	82
36.4989	73
36.5063	66
36.5137	70
36.5211	59
36.5285	74
36.5359	63
36.5433	81
36.5507	70
36.5580	66
36.5654	64
36.5728	55
36.5802	67
36.5876	69
36.5950	56
36.6024	64
36.6098	66
36.6172	73
36.6246	63
36.6320	58
36.6394	61
36.6468	70
36.6542	45
36.6616	57
36.6690	52
36.6764	58
36.6838	52
36.6912	69
36.6986	55
36.7060	48
36.7134	65
36.7207	55
36.7281	67
36.7355	63
36.7429	45
36.7503	55
36.7577	62
36.7651	57
36.7725	39
36.7799	59
36.7873	63
36.7947	60
36.8021	60
36.8095	65
36.8169	43
36.8243	55
36.8317	54
36.8391	50
36.8465	56
36.8539	60
36.8613	44
36.8687	57
36.8760	50
36.8834	50
36.8908	53
36.8982	48
36.9056	69
36.9130	49
36.9204	51
36.9278	50
36.9352	56
36.9426	51
36.9500	48
36.9574	57
36.9648	71
36.9722	58
36.9796	63
36.9870	62
36.9944	55
37.0018	64
37.0092	59
37.0166	76
37.0240	50
37.0313	67
37.0387	70
37.0461	65
37.0535	66
37.0609	66
37.0683	72
37.0757	68
37.0831	68
37.0905	66
37.0979	55
37.1053	45
37.1127	69
37.1201	60
37.1275	68
37.1349	71
37.1423	68
37.1497	72
37.1571	74
37.1645	85
37.1719	57
37.1793	61
37.1866	86
37.1940	63
37.2014	71
37.2088	63
37.2162	84
37.2236	76
37.2310	70
37.2384	71
37.2458	74
37.2532	78
37.2606	71
37.2680	60
37.2754	83
37.2828	68
37.2902	78
37.2976	58
37.3050	70
37.3124	72
37.3198	62
37.3272	64
37.3346	66
37.3419	69
37.3493	58
37.3567	56
37.3641	56
37.3715	75
37.3789	60
37.3863	65
37.3937	68
37.4011	71
37.4085	59
37.4159	54
37.4233	63
37.4307	64
37.4381	71
37.4455	65
37.4529	58
37.4603	53
37.4677	66
37.4751	63
37.4825	60
37.4899	67
37.4972	71
37.5046	79
37.5120	70
37.5194	52
37.5268	76
37.5342	76
37.5416	66
37.5490	69
37.5564	51
37.5638	68
37.5712	77
37.5786	60
37.5860	72
37.5934	81
37.6008	67
37.6082	72
37.6156	79
37.6230	71
37.6304	79
37.6378	86
37.6452	82
37.6525	100
37.6599	90
37.6673	97
37.6747	112
37.6821	98
37.6895	103
37.6969	113
37.7043	100
37.7117	96
37.7191	98
37.7265	99
37.7339	121
37.7413	104
37.7487	100
37.7561	94
37.7635	93
37.7709	99
37.7783	107
37.7857	82
37.7931	103
37.8005	94
37.8078	109
37.8152	84
37.8226	75
37.8300	76
37.8374	99
37.8448	74
37.8522	89
37.8596	81
37.8670	88
37.8744	66
37.8818	78
37.8892	69
37.8966	69
37.9040	75
37.9114	54
37.9188	75
37.9262	50
37.9336	70
37.9410	72
37.9484	74
37.9558	54
37.9631	75
37.9705	70
37.9779	64
37.9853	56
37.9927	59
38.0001	59
38.0075	49
38.0149	66
38.0223	41
38.0297	49
38.0371	55
38.0445	57
38.0519	64
38.0593	79
38.0667	47
38.0741	52
38.0815	56
38.0889	54
38.0963	54
38.1037	57
38.1111	63
38.1184	64
38.1258	42
38.1332	52
38.1406	51
38.1480	62
38.1554	56
38.1628	59
38.1702	58
38.1776	71
38.1850	74
38.1924	51
38.1998	52
38.2072	62
38.2146	60
38.2220	41
38.2294	61
38.2368	59
38.2442	63
38.2516	70
38.2590	56
38.2664	59
38.2738	69
38.2811	77
38.2885	61
38.2959	53
38.3033	69
38.3107	51
38.3181	61
38.3255	58
38.3329	58
38.3403	77
38.3477	51
38.3551	66
38.3625	75
38.3699	73
38.3773	62
38.3847	58
38.3921	64
38.3995	71
38.4069	71
38.4143	65
38.4217	82
38.4291	62
38.4364	74
38.4438	83
38.4512	69
38.4586	73
38.4660	71
38.4734	51
38.4808	68
38.4882	80
38.4956	73
38.5030	68
38.5104	71
38.5178	65
38.5252	65
38.5326	76
38.5400	62
38.5474	57
38.5548	78
38.5622	67
38.5696	73
38.5770	52
38.5844	70
38.5917	49
38.5991	57
38.6065	59
38.6139	61
38.6213	77
38.6287	63
38.6361	64
38.6435	66
38.6509	61
38.6583	64
38.6657	53
38.6731	68
38.6805	54
38.6879	62
38.6953	63
38.7027	64
38.7101	63
38.7175	47
38.7249	60
38.7323	56
38.7397	59
38.7470	44
38.7544	62
38.7618	63
38.7692	60
38.7766	52
38.7840	55
38.7914	54
38.7988	58
38.8062	57
38.8136	56
38.8210	52
38.8284	74
38.8358	43
38.8432	57
38.8506	58
38.8580	59
38.8654	55
38.8728	58
38.8802	52
38.8876	54
38.8950	54
38.9023	67
38.9097	63
38.9171	55
38.9245	54
38.9319	47
38.9393	61
38.9467	57
38.9541	58
38.9615	48
38.9689	48
38.9763	72
38.9837	56
38.9911	48
38.9985	45
39.0059	50
39.0133	62
39.0207	65
39.0281	68
39.0355	54
39.0429	73
39.0503	54
39.0576	44
39.0650	50
39.0724	59
39.0798	63
39.0872	71
39.0946	61
39.1020	58
39.1094	70
39.1168	85
39.1242	68
39.1316	64
39.1390	71
39.1464	59
39.1538	65
39.1612	63
39.1686	87
39.1760	66
39.1834	69
39.1908	76
39.1982	76
39.2056	92
39.2129	92
39.2203	88
39.2277	89
39.2351	96
39.2425	91
39.2499	96
39.2573	107
39.2647	97
39.2721	138
39.2795	98
39.2869	117
39.2943	127
39.3017	140
39.3091	125
39.3165	116
39.3239	149
39.3313	122
39.3387	125
39.3461	156
39.3535	138
39.3609	117
39.3682	139
39.3756	134
39.3830	125
39.3904	146
39.3978	163
39.4052	146
39.4126	135
39.4200	164
39.4274	154
39.4348	155
39.4422	141
39.4496	153
39.4570	136
39.4644	121
39.4718	145
39.4792	112
39.4866	139
39.4940	126
39.5014	130
39.5088	117
39.5162	115
39.5235	115
39.5309	126
39.5383	129
39.5457	125
39.5531	96
39.5605	109
39.5679	113
39.5753	91
39.5827	101
39.5901	129
39.5975	106
39.6049	93
39.6123	105
39.6197	105
39.6271	87
39.6345	100
39.6419	80
39.6493	90
39.6567	79
39.6641	71
39.6715	74
39.6788	72
39.6862	80
39.6936	56
39.7010	81
39.7084	72
39.7158	70
39.7232	70
39.7306	68
39.7380	63
39.7454	70
39.7528	76
39.7602	65
39.7676	68
39.7750	66
39.7824	81
39.7898	65
39.7972	87
39.8046	68
39.8120	80
39.8194	75
39.8268	73
39.8342	72
39.8415	65
39.8489	74
39.8563	75
39.8637	53
39.8711	72
39.8785	66
39.8859	67
39.8933	61
39.9007	65
39.9081	59
39.9155	64
39.9229	62
39.9303	55
39.9377	61
39.9451	69
39.9525	52
39.9599	54
39.9673	63
39.9747	43
39.9821	72
39.9895	67
39.9968	60
