2.0000	215
2.0074	215
2.0148	190
2.0222	164
2.0296	183
2.0370	223
2.0444	186
2.0518	183
2.0592	194
2.0666	195
2.0740	206
2.0813	184
2.0887	213
2.0961	204
2.1035	219
2.1109	203
2.1183	205
2.1257	207
2.1331	191
2.1405	190
2.1479	204
2.1553	200
2.1627	182
2.1701	200
2.1775	217
2.1849	217
2.1923	208
2.1997	196
2.2071	192
2.2145	196
2.2219	205
2.2293	172
2.2366	169
2.2440	185
2.2514	210
2.2588	201
2.2662	177
2.2736	166
2.2810	207
2.2884	179
2.2958	208
2.3032	201
2.3106	164
2.3180	201
2.3254	196
2.3328	184
2.3402	196
2.3476	200
2.3550	184
2.3624	172
2.3698	206
2.3772	177
2.3846	176
2.3919	181
2.3993	180
2.4067	190
2.4141	177
2.4215	204
2.4289	173
2.4363	166
2.4437	193
2.4511	184
2.4585	170
2.4659	184
2.4733	169
2.4807	169
2.4881	175
2.4955	167
2.5029	186
2.5103	194
2.5177	154
2.5251	204
2.5325	163
2.5399	170
2.5472	176
2.5546	169
2.5620	176
2.5694	164
2.5768	166
2.5842	159
2.5916	166
2.5990	159
2.6064	158
2.6138	184
2.6212	165
2.6286	192
2.6360	167
2.6434	159
2.6508	145
2.6582	157
2.6656	141
2.6730	152
2.6804	168
2.6878	173
2.6952	169
2.7025	183
2.7099	158
2.7173	166
2.7247	161
2.7321	166
2.7395	171
2.7469	152
2.7543	171
2.7617	160
2.7691	160
2.7765	147
2.7839	174
2.7913	143
2.7987	173
2.8061	170
2.8135	169
2.8209	165
2.8283	172
2.8357	151
2.8431	155
2.8505	153
2.8579	172
2.8652	161
2.8726	147
2.8800	131
2.8874	129
2.8948	148
2.9022	154
2.9096	176
2.9170	135
2.9244	147
2.9318	167
2.9392	128
2.9466	180
2.9540	164
2.9614	142
2.9688	165
2.9762	132
2.9836	141
2.9910	163
2.9984	143
3.0058	154
3.0132	159
3.0205	158
3.0279	140
3.0353	148
3.0427	156
3.0501	143
3.0575	143
3.0649	152
3.0723	163
3.0797	142
3.0871	159
3.0945	154
3.1019	163
3.1093	170
3.1167	141
3.1241	134
3.1315	150
3.1389	147
3.1463	149
3.1537	143
3.1611	154
3.1685	158
3.1758	168
3.1832	130
3.1906	142
3.1980	138
3.2054	155
3.2128	151
3.2202	134
3.2276	127
3.2350	146
3.2424	163
3.2498	148
3.2572	152
3.2646	152
3.2720	152
3.2794	145
3.2868	138
3.2942	133
3.3016	157
3.3090	150
3.3164	148
3.3238	139
3.3311	127
3.3385	135
3.3459	127
3.3533	146
3.3607	162
3.3681	117
3.3755	128
3.3829	129
3.3903	132
3.3977	129
3.4051	125
3.4125	131
3.4199	119
3.4273	160
3.4347	112
3.4421	128
3.4495	132
3.4569	140
3.4643	144
3.4717	139
3.4791	149
3.4864	135
3.4938	151
3.5012	152
3.5086	122
3.5160	134
3.5234	146
3.5308	117
3.5382	140
3.5456	124
3.5530	146
3.5604	144
3.5678	141
3.5752	155
3.5826	137
3.5900	125
3.5974	115
3.6048	124
3.6122	126
3.6196	109
3.6270	119
3.6344	105
3.6417	119
3.6491	118
3.6565	122
3.6639	118
3.6713	129
3.6787	131
3.6861	146
3.6935	137
3.7009	120
3.7083	149
3.7157	121
3.7231	113
3.7305	119
3.7379	112
3.7453	125
3.7527	127
3.7601	125
3.7675	117
3.7749	131
3.7823	129
3.7897	123
3.7970	124
3.8044	128
3.8118	118
3.8192	132
3.8266	100
3.8340	103
3.8414	131
3.8488	133
3.8562	132
3.8636	128
3.8710	99
3.8784	111
3.8858	116
3.8932	114
3.9006	92
3.9080	103
3.9154	133
3.9228	100
3.9302	134
3.9376	111
3.9450	130
3.9523	118
3.9597	128
3.9671	114
3.9745	121
3.9819	109
3.9893	112
3.9967	123
4.0041	106
4.0115	116
4.0189	96
4.0263	102
4.0337	104
4.0411	120
4.0485	109
4.0559	104
4.0633	105
4.0707	107
4.0781	120
4.0855	108
4.0929	109
4.1003	99
4.1076	103
4.1150	94
4.1224	97
4.1298	98
4.1372	113
4.1446	98
4.1520	105
4.1594	110
4.1668	98
4.1742	96
4.1816	93
4.1890	89
4.1964	105
4.2038	108
4.2112	93
4.2186	92
4.2260	105
4.2334	86
4.2408	102
4.2482	101
4.2556	104
4.2629	85
4.2703	98
4.2777	96
4.2851	117
4.2925	104
4.2999	106
4.3073	106
4.3147	110
4.3221	85
4.3295	95
4.3369	88
4.3443	109
4.3517	89
4.3591	101
4.3665	96
4.3739	96
4.3813	96
4.3887	94
4.3961	96
4.4035	98
4.4109	105
4.4183	109
4.4256	96
4.4330	92
4.4404	110
4.4478	99
4.4552	95
4.4626	96
4.4700	96
4.4774	88
4.4848	94
4.4922	85
4.4996	90
4.5070	81
4.5144	92
4.5218	95
4.5292	81
4.5366	86
4.5440	97
4.5514	94
4.5588	101
4.5662	91
4.5736	88
4.5809	96
4.5883	81
4.5957	84
4.6031	82
4.6105	81
4.6179	96
4.6253	79
4.6327	87
4.6401	75
4.6475	85
4.6549	88
4.6623	89
4.6697	81
4.6771	95
4.6845	97
4.6919	90
4.6993	92
4.7067	91
4.7141	90
4.7215	76
4.7289	99
4.7362	93
4.7436	89
4.7510	91
4.7584	75
4.7658	72
4.7732	99
4.7806	95
4.7880	94
4.7954	69
4.8028	85
4.8102	90
4.8176	83
4.8250	78
4.8324	91
4.8398	85
4.8472	69
4.8546	97
4.8620	84
4.8694	66
4.8768	74
4.8842	83
4.8915	71
4.8989	86
4.9063	80
4.9137	82
4.9211	81
4.9285	83
4.9359	87
4.9433	81
4.9507	83
4.9581	72
4.9655	60
4.9729	81
4.9803	82
4.9877	77
4.9951	84
5.0025	70
5.0099	78
5.0173	77
5.0247	92
5.0321	83
5.0395	86
5.0468	81
5.0542	68
5.0616	90
5.0690	89
5.0764	85
5.0838	74
5.0912	76
5.0986	86
5.1060	78
5.1134	81
5.1208	73
5.1282	78
5.1356	73
5.1430	105
5.1504	67
5.1578	87
5.1652	90
5.1726	93
5.1800	81
5.1874	79
5.1948	75
5.2021	74
5.2095	81
5.2169	62
5.2243	59
5.2317	78
5.2391	76
5.2465	61
5.2539	84
5.2613	72
5.2687	70
5.2761	83
5.2835	82
5.2909	59
5.2983	70
5.3057	78
5.3131	68
5.3205	73
5.3279	65
5.3353	58
5.3427	88
5.3501	75
5.3574	77
5.3648	69
5.3722	81
5.3796	75
5.3870	67
5.3944	76
5.4018	72
5.4092	77
5.4166	72
5.4240	65
5.4314	65
5.4388	80
5.4462	63
5.4536	64
5.4610	71
5.4684	83
5.4758	57
5.4832	62
5.4906	74
5.4980	66
5.5054	74
5.5127	68
5.5201	77
5.5275	82
5.5349	63
5.5423	76
5.5497	72
5.5571	72
5.5645	63
5.5719	78
5.5793	61
5.5867	48
5.5941	77
5.6015	67
5.6089	61
5.6163	69
5.6237	66
5.6311	68
5.6385	74
5.6459	70
5.6533	50
5.6607	63
5.6680	68
5.6754	45
5.6828	66
5.6902	73
5.6976	61
5.7050	82
5.7124	62
5.7198	64
5.7272	74
5.7346	59
5.7420	68
5.7494	77
5.7568	61
5.7642	62
5.7716	60
5.7790	67
5.7864	68
5.7938	78
5.8012	53
5.8086	76
5.8160	84
5.8233	87
5.8307	65
5.8381	82
5.8455	56
5.8529	55
5.8603	66
5.8677	61
5.8751	60
5.8825	49
5.8899	76
5.8973	71
5.9047	60
5.9121	49
5.9195	71
5.9269	58
5.9343	50
5.9417	74
5.9491	69
5.9565	68
5.9639	71
5.9713	62
5.9786	68
5.9860	69
5.9934	58
6.0008	50
6.0082	69
6.0156	74
6.0230	70
6.0304	77
6.0378	68
6.0452	58
6.0526	60
6.0600	52
6.0674	56
6.0748	68
6.0822	61
6.0896	58
6.0970	64
6.1044	64
6.1118	62
6.1192	54
6.1266	74
6.1340	61
6.1413	63
6.1487	75
6.1561	56
6.1635	70
6.1709	70
6.1783	66
6.1857	56
6.1931	61
6.2005	60
6.2079	60
6.2153	73
6.2227	43
6.2301	67
6.2375	51
6.2449	66
6.2523	51
6.2597	52
6.2671	68
6.2745	63
6.2819	51
6.2893	53
6.2966	56
6.3040	64
6.3114	55
6.3188	44
6.3262	56
6.3336	55
6.3410	54
6.3484	56
6.3558	61
6.3632	58
6.3706	67
6.3780	57
6.3854	49
6.3928	56
6.4002	65
6.4076	50
6.4150	55
6.4224	61
6.4298	66
6.4372	67
6.4446	60
6.4519	60
6.4593	55
6.4667	57
6.4741	53
6.4815	56
6.4889	54
6.4963	57
6.5037	58
6.5111	59
6.5185	61
6.5259	60
6.5333	63
6.5407	59
6.5481	57
6.5555	57
6.5629	67
6.5703	73
6.5777	72
6.5851	49
6.5925	46
6.5999	60
6.6072	57
6.6146	58
6.6220	62
6.6294	53
6.6368	51
6.6442	48
6.6516	61
6.6590	65
6.6664	59
6.6738	47
6.6812	76
6.6886	53
6.6960	54
6.7034	64
6.7108	63
6.7182	56
6.7256	55
6.7330	62
6.7404	57
6.7478	46
6.7552	58
6.7625	68
6.7699	67
6.7773	60
6.7847	52
6.7921	57
6.7995	59
6.8069	48
6.8143	69
6.8217	45
6.8291	59
6.8365	61
6.8439	60
6.8513	63
6.8587	59
6.8661	60
6.8735	52
6.8809	58
6.8883	52
6.8957	61
6.9031	62
6.9105	49
6.9178	56
6.9252	64
6.9326	58
6.9400	51
6.9474	51
6.9548	60
6.9622	55
6.9696	52
6.9770	64
6.9844	48
6.9918	58
6.9992	51
7.0066	57
7.0140	54
7.0214	53
7.0288	52
7.0362	58
7.0436	58
7.0510	51
7.0584	56
7.0658	60
7.0731	56
7.0805	61
7.0879	49
7.0953	67
7.1027	68
7.1101	55
7.1175	57
7.1249	66
7.1323	48
7.1397	53
7.1471	61
7.1545	62
7.1619	58
7.1693	53
7.1767	49
7.1841	53
7.1915	47
7.1989	60
7.2063	49
7.2137	46
7.2211	48
7.2284	67
7.2358	42
7.2432	61
7.2506	54
7.2580	65
7.2654	55
7.2728	62
7.2802	60
7.2876	56
7.2950	32
7.3024	47
7.3098	47
7.3172	50
7.3246	51
7.3320	52
7.3394	51
7.3468	60
7.3542	51
7.3616	44
7.3690	47
7.3764	47
7.3837	67
7.3911	65
7.3985	42
7.4059	55
7.4133	49
7.4207	56
7.4281	64
7.4355	55
7.4429	49
7.4503	57
7.4577	60
7.4651	55
7.4725	46
7.4799	47
7.4873	72
7.4947	62
7.5021	63
7.5095	66
7.5169	49
7.5243	60
7.5317	66
7.5390	50
7.5464	48
7.5538	46
7.5612	55
7.5686	55
7.5760	70
7.5834	40
7.5908	52
7.5982	45
7.6056	54
7.6130	51
7.6204	54
7.6278	51
7.6352	55
7.6426	61
7.6500	62
7.6574	56
7.6648	74
7.6722	54
7.6796	55
7.6870	50
7.6944	50
7.7017	68
7.7091	61
7.7165	40
7.7239	53
7.7313	60
7.7387	57
7.7461	50
7.7535	63
7.7609	59
7.7683	49
7.7757	54
7.7831	40
7.7905	49
7.7979	59
7.8053	40
7.8127	62
7.8201	49
7.8275	62
7.8349	60
7.8423	52
7.8497	62
7.8570	57
7.8644	57
7.8718	42
7.8792	61
7.8866	49
7.8940	62
7.9014	42
7.9088	58
7.9162	45
7.9236	60
7.9310	55
7.9384	71
7.9458	55
7.9532	55
7.9606	63
7.9680	65
7.9754	62
7.9828	47
7.9902	41
7.9976	48
8.0050	50
8.0123	48
8.0197	54
8.0271	46
8.0345	61
8.0419	66
8.0493	61
8.0567	52
8.0641	59
8.0715	63
8.0789	52
8.0863	68
8.0937	68
8.1011	48
8.1085	41
8.1159	54
8.1233	53
8.1307	63
8.1381	52
8.1455	54
8.1529	61
8.1603	55
8.1676	49
8.1750	64
8.1824	68
8.1898	50
8.1972	49
8.2046	48
8.2120	59
8.2194	37
8.2268	67
8.2342	57
8.2416	75
8.2490	50
8.2564	48
8.2638	69
8.2712	60
8.2786	46
8.2860	69
8.2934	55
8.3008	54
8.3082	57
8.3156	42
8.3229	66
8.3303	65
8.3377	75
8.3451	58
8.3525	60
8.3599	57
8.3673	68
8.3747	67
8.3821	59
8.3895	66
8.3969	59
8.4043	69
8.4117	82
8.4191	79
8.4265	82
8.4339	92
8.4413	98
8.4487	84
8.4561	88
8.4635	107
8.4709	117
8.4782	115
8.4856	119
8.4930	158
8.5004	172
8.5078	184
8.5152	178
8.5226	225
8.5300	243
8.5374	233
8.5448	276
8.5522	265
8.5596	213
8.5670	231
8.5744	202
8.5818	157
8.5892	152
8.5966	111
8.6040	121
8.6114	116
8.6188	107
8.6262	97
8.6335	70
8.6409	80
8.6483	78
8.6557	81
8.6631	67
8.6705	64
8.6779	52
8.6853	56
8.6927	53
8.7001	47
8.7075	67
8.7149	66
8.7223	69
8.7297	70
8.7371	63
8.7445	57
8.7519	63
8.7593	48
8.7667	66
8.7741	61
8.7815	58
8.7888	53
8.7962	72
8.8036	66
8.8110	56
8.8184	42
8.8258	49
8.8332	56
8.8406	54
8.8480	65
8.8554	53
8.8628	57
8.8702	52
8.8776	38
8.8850	55
8.8924	44
8.8998	68
8.9072	48
8.9146	63
8.9220	54
8.9294	53
8.9368	44
8.9441	60
8.9515	64
8.9589	49
8.9663	55
8.9737	62
8.9811	57
8.9885	42
8.9959	56
9.0033	50
9.0107	61
9.0181	56
9.0255	60
9.0329	59
9.0403	48
9.0477	49
9.0551	54
9.0625	63
9.0699	57
9.0773	58
9.0847	55
9.0921	39
9.0994	70
9.1068	46
9.1142	46
9.1216	47
9.1290	54
9.1364	50
9.1438	67
9.1512	47
9.1586	50
9.1660	67
9.1734	61
9.1808	52
9.1882	46
9.1956	59
9.2030	36
9.2104	48
9.2178	56
9.2252	54
9.2326	52
9.2400	43
9.2474	67
9.2548	51
9.2621	48
9.2695	60
9.2769	49
9.2843	50
9.2917	53
9.2991	56
9.3065	52
9.3139	49
9.3213	58
9.3287	47
9.3361	51
9.3435	59
9.3509	64
9.3583	56
9.3657	53
9.3731	54
9.3805	58
9.3879	46
9.3953	48
9.4027	50
9.4101	50
9.4174	60
9.4248	47
9.4322	55
9.4396	51
9.4470	56
9.4544	48
9.4618	51
9.4692	44
9.4766	62
9.4840	45
9.4914	59
9.4988	48
9.5062	60
9.5136	48
9.5210	52
9.5284	50
9.5358	58
9.5432	55
9.5506	46
9.5580	46
9.5654	51
9.5727	54
9.5801	49
9.5875	47
9.5949	46
9.6023	42
9.6097	46
9.6171	57
9.6245	60
9.6319	60
9.6393	65
9.6467	41
9.6541	42
9.6615	63
9.6689	58
9.6763	42
9.6837	49
9.6911	45
9.6985	53
9.7059	46
9.7133	50
9.7207	54
9.7280	53
9.7354	58
9.7428	57
9.7502	45
9.7576	40
9.7650	57
9.7724	47
9.7798	54
9.7872	60
9.7946	52
9.8020	51
9.8094	70
9.8168	56
9.8242	58
9.8316	51
9.8390	55
9.8464	38
9.8538	64
9.8612	57
9.8686	36
9.8760	35
9.8833	41
9.8907	46
9.8981	46
9.9055	47
9.9129	55
9.9203	52
9.9277	45
9.9351	45
9.9425	48
9.9499	69
9.9573	48
9.9647	45
9.9721	53
9.9795	46
9.9869	70
9.9943	51
10.0017	49
10.0091	52
10.0165	41
10.0239	44
10.0313	46
10.0386	53
10.0460	59
10.0534	55
10.0608	59
10.0682	47
10.0756	53
10.0830	49
10.0904	42
10.0978	61
10.1052	47
10.1126	57
10.1200	60
10.1274	42
10.1348	52
10.1422	59
10.1496	49
10.1570	46
10.1644	55
10.1718	40
10.1792	70
10.1866	54
10.1939	47
10.2013	56
10.2087	59
10.2161	62
10.2235	59
10.2309	54
10.2383	47
10.2457	52
10.2531	45
10.2605	51
10.2679	57
10.2753	60
10.2827	50
10.2901	66
10.2975	65
10.3049	63
10.3123	51
10.3197	48
10.3271	59
10.3345	65
10.3419	51
10.3492	41
10.3566	59
10.3640	57
10.3714	56
10.3788	45
10.3862	45
10.3936	63
10.4010	53
10.4084	46
10.4158	63
10.4232	57
10.4306	54
10.4380	57
10.4454	47
10.4528	51
10.4602	49
10.4676	41
10.4750	46
10.4824	39
10.4898	52
10.4972	41
10.5045	51
10.5119	54
10.5193	54
10.5267	59
10.5341	56
10.5415	60
10.5489	47
10.5563	51
10.5637	49
10.5711	54
10.5785	50
10.5859	61
10.5933	54
10.6007	55
10.6081	57
10.6155	53
10.6229	58
10.6303	42
10.6377	51
10.6451	40
10.6525	42
10.6598	46
10.6672	55
10.6746	42
10.6820	48
10.6894	34
10.6968	62
10.7042	49
10.7116	51
10.7190	47
10.7264	52
10.7338	49
10.7412	44
10.7486	56
10.7560	57
10.7634	62
10.7708	63
10.7782	61
10.7856	44
10.7930	54
10.8004	55
10.8078	60
10.8151	53
10.8225	50
10.8299	41
10.8373	46
10.8447	61
10.8521	49
10.8595	50
10.8669	54
10.8743	40
10.8817	43
10.8891	52
10.8965	42
10.9039	49
10.9113	43
10.9187	37
10.9261	44
10.9335	57
10.9409	51
10.9483	43
10.9557	54
10.9631	55
10.9705	49
10.9778	49
10.9852	53
10.9926	45
11.0000	57
11.0074	58
11.0148	48
11.0222	52
11.0296	46
11.0370	49
11.0444	50
11.0518	43
11.0592	47
11.0666	43
11.0740	65
11.0814	39
11.0888	57
11.0962	47
11.1036	39
11.1110	42
11.1184	54
11.1258	37
11.1331	60
11.1405	41
11.1479	41
11.1553	53
11.1627	56
11.1701	45
11.1775	48
11.1849	42
11.1923	54
11.1997	45
11.2071	37
11.2145	57
11.2219	55
11.2293	54
11.2367	36
11.2441	49
11.2515	43
11.2589	70
11.2663	51
11.2737	68
11.2811	44
11.2884	55
11.2958	59
11.3032	59
11.3106	56
11.3180	57
11.3254	65
11.3328	53
11.3402	49
11.3476	48
11.3550	45
11.3624	42
11.3698	62
11.3772	50
11.3846	58
11.3920	49
11.3994	57
11.4068	57
11.4142	52
11.4216	56
11.4290	35
11.4364	54
11.4437	45
11.4511	52
11.4585	41
11.4659	61
11.4733	51
11.4807	42
11.4881	50
11.4955	46
11.5029	59
11.5103	59
11.5177	56
11.5251	51
11.5325	42
11.5399	40
11.5473	56
11.5547	59
11.5621	57
11.5695	45
11.5769	50
11.5843	65
11.5917	57
11.5990	50
11.6064	70
11.6138	52
11.6212	57
11.6286	56
11.6360	50
11.6434	64
11.6508	78
11.6582	61
11.6656	44
11.6730	70
11.6804	83
11.6878	74
11.6952	73
11.7026	103
11.7100	89
11.7174	112
11.7248	119
11.7322	104
11.7396	120
11.7470	109
11.7543	95
11.7617	105
11.7691	81
11.7765	94
11.7839	92
11.7913	87
11.7987	99
11.8061	81
11.8135	77
11.8209	66
11.8283	61
11.8357	76
11.8431	64
11.8505	51
11.8579	62
11.8653	51
11.8727	63
11.8801	58
11.8875	60
11.8949	55
11.9023	51
11.9096	69
11.9170	49
11.9244	54
11.9318	47
11.9392	70
11.9466	60
11.9540	44
11.9614	42
11.9688	61
11.9762	42
11.9836	67
11.9910	45
11.9984	52
12.0058	54
12.0132	58
12.0206	60
12.0280	47
12.0354	50
12.0428	45
12.0502	56
12.0576	58
12.0649	44
12.0723	50
12.0797	43
12.0871	47
12.0945	52
12.1019	43
12.1093	72
12.1167	61
12.1241	50
12.1315	57
12.1389	53
12.1463	46
12.1537	57
12.1611	50
12.1685	64
12.1759	62
12.1833	54
12.1907	50
12.1981	59
12.2055	47
12.2129	74
12.2202	49
12.2276	58
12.2350	60
12.2424	52
12.2498	71
12.2572	70
12.2646	52
12.2720	63
12.2794	68
12.2868	75
12.2942	80
12.3016	89
12.3090	90
12.3164	109
12.3238	122
12.3312	140
12.3386	150
12.3460	176
12.3534	201
12.3608	213
12.3682	243
12.3755	278
12.3829	257
12.3903	257
12.3977	270
12.4051	219
12.4125	252
12.4199	168
12.4273	199
12.4347	157
12.4421	173
12.4495	150
12.4569	133
12.4643	127
12.4717	136
12.4791	106
12.4865	116
12.4939	101
12.5013	72
12.5087	80
12.5161	62
12.5235	82
12.5309	59
12.5382	64
12.5456	75
12.5530	58
12.5604	63
12.5678	54
12.5752	65
12.5826	59
12.5900	56
12.5974	60
12.6048	61
12.6122	52
12.6196	45
12.6270	54
12.6344	56
12.6418	47
12.6492	57
12.6566	37
12.6640	59
12.6714	58
12.6788	66
12.6862	55
12.6935	53
12.7009	69
12.7083	52
12.7157	61
12.7231	54
12.7305	46
12.7379	48
12.7453	52
12.7527	44
12.7601	60
12.7675	47
12.7749	37
12.7823	54
12.7897	44
12.7971	55
12.8045	52
12.8119	63
12.8193	42
12.8267	59
12.8341	50
12.8415	52
12.8488	42
12.8562	53
12.8636	51
12.8710	50
12.8784	53
12.8858	46
12.8932	51
12.9006	51
12.9080	47
12.9154	53
12.9228	52
12.9302	78
12.9376	60
12.9450	62
12.9524	37
12.9598	51
12.9672	69
12.9746	46
12.9820	56
12.9894	53
12.9968	56
13.0041	58
13.0115	46
13.0189	70
13.0263	58
13.0337	59
13.0411	46
13.0485	48
13.0559	44
13.0633	61
13.0707	49
13.0781	56
13.0855	52
13.0929	60
13.1003	43
13.1077	58
13.1151	55
13.1225	42
13.1299	55
13.1373	45
13.1447	63
13.1521	64
13.1594	69
13.1668	58
13.1742	62
13.1816	67
13.1890	58
13.1964	61
13.2038	73
13.2112	98
13.2186	102
13.2260	94
13.2334	96
13.2408	122
13.2482	129
13.2556	114
13.2630	120
13.2704	159
13.2778	136
13.2852	134
13.2926	133
13.3000	126
13.3074	123
13.3147	104
13.3221	105
13.3295	98
13.3369	102
13.3443	104
13.3517	72
13.3591	71
13.3665	98
13.3739	71
13.3813	79
13.3887	77
13.3961	51
13.4035	65
13.4109	51
13.4183	66
13.4257	58
13.4331	73
13.4405	50
13.4479	51
13.4553	65
13.4627	53
13.4700	49
13.4774	49
13.4848	69
13.4922	62
13.4996	60
13.5070	57
13.5144	62
13.5218	50
13.5292	59
13.5366	69
13.5440	60
13.5514	55
13.5588	62
13.5662	75
13.5736	59
13.5810	73
13.5884	68
13.5958	78
13.6032	77
13.6106	77
13.6180	101
13.6253	95
13.6327	105
13.6401	112
13.6475	130
13.6549	145
13.6623	194
13.6697	210
13.6771	221
13.6845	236
13.6919	273
13.6993	287
13.7067	236
13.7141	309
13.7215	274
13.7289	318
13.7363	273
13.7437	238
13.7511	245
13.7585	214
13.7659	200
13.7733	187
13.7806	164
13.7880	149
13.7954	113
13.8028	111
13.8102	96
13.8176	87
13.8250	95
13.8324	96
13.8398	46
13.8472	66
13.8546	56
13.8620	61
13.8694	76
13.8768	63
13.8842	63
13.8916	79
13.8990	60
13.9064	64
13.9138	52
13.9212	42
13.9286	55
13.9359	56
13.9433	56
13.9507	46
13.9581	55
13.9655	55
13.9729	56
13.9803	62
13.9877	56
13.9951	47
14.0025	58
14.0099	53
14.0173	53
14.0247	51
14.0321	41
14.0395	38
14.0469	59
14.0543	52
14.0617	54
14.0691	59
14.0765	54
14.0839	45
14.0913	41
14.0986	55
14.1060	51
14.1134	67
14.1208	45
14.1282	49
14.1356	53
14.1430	43
14.1504	51
14.1578	51
14.1652	60
14.1726	50
14.1800	53
14.1874	44
14.1948	39
14.2022	55
14.2096	51
14.2170	41
14.2244	38
14.2318	50
14.2392	50
14.2466	53
14.2539	50
14.2613	39
14.2687	57
14.2761	34
14.2835	51
14.2909	54
14.2983	52
14.3057	43
14.3131	45
14.3205	52
14.3279	67
14.3353	44
14.3427	60
14.3501	58
14.3575	60
14.3649	60
14.3723	81
14.3797	59
14.3871	92
14.3945	95
14.4019	98
14.4092	99
14.4166	88
14.4240	85
14.4314	97
14.4388	99
14.4462	83
14.4536	98
14.4610	101
14.4684	89
14.4758	67
14.4832	82
14.4906	68
14.4980	75
14.5054	65
14.5128	59
14.5202	62
14.5276	59
14.5350	52
14.5424	38
14.5498	53
14.5572	45
14.5645	35
14.5719	34
14.5793	43
14.5867	40
14.5941	41
14.6015	41
14.6089	39
14.6163	50
14.6237	47
14.6311	44
14.6385	45
14.6459	58
14.6533	51
14.6607	54
14.6681	58
14.6755	46
14.6829	37
14.6903	41
14.6977	34
14.7051	51
14.7125	39
14.7198	45
14.7272	47
14.7346	42
14.7420	44
14.7494	31
14.7568	50
14.7642	48
14.7716	47
14.7790	46
14.7864	48
14.7938	51
14.8012	39
14.8086	50
14.8160	41
14.8234	30
14.8308	32
14.8382	42
14.8456	42
14.8530	40
14.8604	45
14.8678	54
14.8751	36
14.8825	45
14.8899	44
14.8973	41
14.9047	49
14.9121	60
14.9195	43
14.9269	54
14.9343	44
14.9417	44
14.9491	38
14.9565	49
14.9639	62
14.9713	44
14.9787	42
14.9861	38
14.9935	34
15.0009	43
15.0083	42
15.0157	42
15.0231	50
15.0304	45
15.0378	35
15.0452	50
15.0526	31
15.0600	35
15.0674	39
15.0748	38
15.0822	46
15.0896	31
15.0970	48
15.1044	40
15.1118	38
15.1192	45
15.1266	29
15.1340	50
15.1414	38
15.1488	43
15.1562	45
15.1636	46
15.1710	34
15.1784	34
15.1857	35
15.1931	45
15.2005	41
15.2079	40
15.2153	42
15.2227	48
15.2301	40
15.2375	43
15.2449	40
15.2523	33
15.2597	30
15.2671	42
15.2745	43
15.2819	40
15.2893	41
15.2967	41
15.3041	37
15.3115	40
15.3189	42
15.3263	38
15.3337	32
15.3410	29
15.3484	37
15.3558	38
15.3632	33
15.3706	39
15.3780	40
15.3854	34
15.3928	40
15.4002	34
15.4076	40
15.4150	43
15.4224	47
15.4298	30
15.4372	57
15.4446	46
15.4520	38
15.4594	57
15.4668	50
15.4742	40
15.4816	34
15.4890	42
15.4963	51
15.5037	38
15.5111	46
15.5185	40
15.5259	44
15.5333	43
15.5407	45
15.5481	57
15.5555	57
15.5629	74
15.5703	51
15.5777	70
15.5851	63
15.5925	65
15.5999	56
15.6073	47
15.6147	58
15.6221	47
15.6295	50
15.6369	38
15.6443	61
15.6516	45
15.6590	28
15.6664	44
15.6738	45
15.6812	60
15.6886	52
15.6960	41
15.7034	35
15.7108	44
15.7182	46
15.7256	34
15.7330	39
15.7404	39
15.7478	42
15.7552	35
15.7626	39
15.7700	50
15.7774	33
15.7848	37
15.7922	24
15.7996	34
15.8070	39
15.8143	44
15.8217	43
15.8291	42
15.8365	35
15.8439	39
15.8513	39
15.8587	41
15.8661	38
15.8735	32
15.8809	33
15.8883	38
15.8957	37
15.9031	37
15.9105	33
15.9179	40
15.9253	32
15.9327	38
15.9401	40
15.9475	42
15.9549	36
15.9623	32
15.9696	40
15.9770	37
15.9844	44
15.9918	34
15.9992	35
16.0066	35
16.0140	42
16.0214	27
16.0288	37
16.0362	38
16.0436	38
16.0510	39
16.0584	37
16.0658	44
16.0732	40
16.0806	34
16.0880	36
16.0954	37
16.1028	22
16.1102	34
16.1176	36
16.1249	38
16.1323	35
16.1397	44
16.1471	34
16.1545	44
16.1619	49
16.1693	39
16.1767	40
16.1841	49
16.1915	26
16.1989	25
16.2063	37
16.2137	34
16.2211	30
16.2285	36
16.2359	41
16.2433	40
16.2507	44
16.2581	46
16.2655	34
16.2729	28
16.2802	27
16.2876	50
16.2950	37
16.3024	35
16.3098	31
16.3172	38
16.3246	32
16.3320	42
16.3394	30
16.3468	25
16.3542	29
16.3616	36
16.3690	37
16.3764	34
16.3838	29
16.3912	33
16.3986	35
16.4060	41
16.4134	35
16.4208	51
16.4282	44
16.4355	37
16.4429	41
16.4503	44
16.4577	30
16.4651	34
16.4725	40
16.4799	30
16.4873	42
16.4947	35
16.5021	38
16.5095	33
16.5169	27
16.5243	46
16.5317	37
16.5391	39
16.5465	35
16.5539	31
16.5613	46
16.5687	28
16.5761	34
16.5835	37
16.5908	34
16.5982	30
16.6056	37
16.6130	38
16.6204	44
16.6278	27
16.6352	49
16.6426	35
16.6500	38
16.6574	39
16.6648	40
16.6722	40
16.6796	45
16.6870	44
16.6944	51
16.7018	42
16.7092	51
16.7166	55
16.7240	48
16.7314	57
16.7388	64
16.7461	68
16.7535	68
16.7609	70
16.7683	87
16.7757	100
16.7831	118
16.7905	112
16.7979	162
16.8053	152
16.8127	197
16.8201	203
16.8275	214
16.8349	205
16.8423	257
16.8497	266
16.8571	253
16.8645	255
16.8719	278
16.8793	266
16.8867	242
16.8941	249
16.9014	243
16.9088	234
16.9162	195
16.9236	178
16.9310	186
16.9384	156
16.9458	136
16.9532	140
16.9606	108
16.9680	122
16.9754	118
16.9828	106
16.9902	97
16.9976	85
17.0050	103
17.0124	124
17.0198	123
17.0272	141
17.0346	135
17.0420	145
17.0494	141
17.0567	152
17.0641	152
17.0715	155
17.0789	156
17.0863	171
17.0937	157
17.1011	137
17.1085	145
17.1159	136
17.1233	121
17.1307	147
17.1381	102
17.1455	95
17.1529	102
17.1603	80
17.1677	73
17.1751	85
17.1825	68
17.1899	72
17.1973	56
17.2047	54
17.2120	58
17.2194	45
17.2268	51
17.2342	53
17.2416	55
17.2490	39
17.2564	35
17.2638	47
17.2712	46
17.2786	49
17.2860	38
17.2934	39
17.3008	45
17.3082	45
17.3156	29
17.3230	53
17.3304	48
17.3378	46
17.3452	42
17.3526	35
17.3600	40
17.3674	49
17.3747	29
17.3821	47
17.3895	42
17.3969	38
17.4043	34
17.4117	36
17.4191	46
17.4265	43
17.4339	40
17.4413	33
17.4487	40
17.4561	38
17.4635	45
17.4709	29
17.4783	40
17.4857	37
17.4931	39
17.5005	43
17.5079	37
17.5153	40
17.5227	44
17.5300	34
17.5374	44
17.5448	37
17.5522	30
17.5596	45
17.5670	44
17.5744	41
17.5818	49
17.5892	46
17.5966	47
17.6040	43
17.6114	41
17.6188	38
17.6262	38
17.6336	33
17.6410	32
17.6484	37
17.6558	56
17.6632	57
17.6706	44
17.6780	49
17.6853	42
17.6927	34
17.7001	42
17.7075	42
17.7149	49
17.7223	44
17.7297	62
17.7371	62
17.7445	66
17.7519	68
17.7593	77
17.7667	79
17.7741	85
17.7815	96
17.7889	136
17.7963	139
17.8037	182
17.8111	209
17.8185	232
17.8259	236
17.8333	288
17.8406	319
17.8480	353
17.8554	345
17.8628	373
17.8702	391
17.8776	406
17.8850	379
17.8924	380
17.8998	380
17.9072	373
17.9146	352
17.9220	365
17.9294	297
17.9368	317
17.9442	271
17.9516	250
17.9590	199
17.9664	217
17.9738	158
17.9812	128
17.9886	137
17.9959	103
18.0033	100
18.0107	106
18.0181	87
18.0255	75
18.0329	76
18.0403	70
18.0477	60
18.0551	52
18.0625	47
18.0699	59
18.0773	50
18.0847	54
18.0921	43
18.0995	56
18.1069	54
18.1143	48
18.1217	51
18.1291	61
18.1365	49
18.1439	33
18.1512	45
18.1586	43
18.1660	50
18.1734	53
18.1808	52
18.1882	45
18.1956	31
18.2030	50
18.2104	49
18.2178	49
18.2252	51
18.2326	47
18.2400	55
18.2474	46
18.2548	45
18.2622	52
18.2696	44
18.2770	50
18.2844	46
18.2918	58
18.2992	37
18.3065	47
18.3139	54
18.3213	40
18.3287	48
18.3361	42
18.3435	54
18.3509	35
18.3583	45
18.3657	43
18.3731	43
18.3805	43
18.3879	44
18.3953	32
18.4027	52
18.4101	49
18.4175	52
18.4249	42
18.4323	56
18.4397	53
18.4471	43
18.4545	57
18.4618	70
18.4692	70
18.4766	69
18.4840	91
18.4914	85
18.4988	112
18.5062	95
18.5136	150
18.5210	164
18.5284	179
18.5358	223
18.5432	234
18.5506	303
18.5580	333
18.5654	354
18.5728	429
18.5802	433
18.5876	471
18.5950	491
18.6024	501
18.6098	497
18.6171	504
18.6245	458
18.6319	490
18.6393	469
18.6467	432
18.6541	412
18.6615	376
18.6689	358
18.6763	348
18.6837	339
18.6911	266
18.6985	218
18.7059	232
18.7133	210
18.7207	170
18.7281	166
18.7355	123
18.7429	140
18.7503	119
18.7577	101
18.7651	117
18.7724	82
18.7798	78
18.7872	77
18.7946	68
18.8020	64
18.8094	54
18.8168	64
18.8242	58
18.8316	54
18.8390	53
18.8464	56
18.8538	40
18.8612	34
18.8686	50
18.8760	48
18.8834	47
18.8908	33
18.8982	49
18.9056	49
18.9130	43
18.9204	36
18.9278	45
18.9351	43
18.9425	40
18.9499	40
18.9573	59
18.9647	43
18.9721	41
18.9795	43
18.9869	40
18.9943	44
19.0017	47
19.0091	42
19.0165	47
19.0239	38
19.0313	45
19.0387	50
19.0461	34
19.0535	42
19.0609	31
19.0683	37
19.0757	33
19.0831	49
19.0904	52
19.0978	40
19.1052	44
19.1126	40
19.1200	35
19.1274	41
19.1348	31
19.1422	46
19.1496	48
19.1570	36
19.1644	43
19.1718	44
19.1792	44
19.1866	36
19.1940	36
19.2014	36
19.2088	45
19.2162	36
19.2236	46
19.2310	33
19.2384	49
19.2457	40
19.2531	35
19.2605	40
19.2679	47
19.2753	32
19.2827	50
19.2901	25
19.2975	49
19.3049	34
19.3123	45
19.3197	43
19.3271	37
19.3345	29
19.3419	39
19.3493	52
19.3567	39
19.3641	40
19.3715	41
19.3789	36
19.3863	32
19.3937	46
19.4010	41
19.4084	30
19.4158	44
19.4232	46
19.4306	54
19.4380	62
19.4454	72
19.4528	47
19.4602	76
19.4676	71
19.4750	75
19.4824	71
19.4898	65
19.4972	96
19.5046	81
19.5120	69
19.5194	98
19.5268	96
19.5342	90
19.5416	85
19.5490	75
19.5563	77
19.5637	88
19.5711	76
19.5785	64
19.5859	73
19.5933	65
19.6007	67
19.6081	59
19.6155	66
19.6229	45
19.6303	50
19.6377	56
19.6451	46
19.6525	44
19.6599	57
19.6673	48
19.6747	40
19.6821	45
19.6895	50
19.6969	37
19.7043	40
19.7116	41
19.7190	43
19.7264	51
19.7338	39
19.7412	45
19.7486	48
19.7560	40
19.7634	39
19.7708	41
19.7782	35
19.7856	36
19.7930	26
19.8004	43
19.8078	38
19.8152	45
19.8226	44
19.8300	45
19.8374	41
19.8448	36
19.8522	31
19.8596	38
19.8669	43
19.8743	39
19.8817	49
19.8891	40
19.8965	47
19.9039	43
19.9113	36
19.9187	39
19.9261	39
19.9335	38
19.9409	34
19.9483	39
19.9557	45
19.9631	54
19.9705	37
19.9779	56
19.9853	23
19.9927	42
20.0001	31
20.0075	40
20.0149	34
20.0222	37
20.0296	39
20.0370	41
20.0444	54
20.0518	46
20.0592	47
20.0666	39
20.0740	36
20.0814	29
20.0888	41
20.0962	41
20.1036	38
20.1110	42
20.1184	42
20.1258	44
20.1332	52
20.1406	39
20.1480	48
20.1554	44
20.1628	38
20.1702	40
20.1775	39
20.1849	34
20.1923	47
20.1997	47
20.2071	38
20.2145	39
20.2219	44
20.2293	47
20.2367	54
20.2441	48
20.2515	40
20.2589	45
20.2663	48
20.2737	39
20.2811	42
20.2885	34
20.2959	54
20.3033	49
20.3107	54
20.3181	54
20.3255	43
20.3328	45
20.3402	45
20.3476	50
20.3550	31
20.3624	52
20.3698	48
20.3772	45
20.3846	69
20.3920	53
20.3994	60
20.4068	66
20.4142	63
20.4216	61
20.4290	64
20.4364	72
20.4438	73
20.4512	94
20.4586	108
20.4660	120
20.4734	150
20.4808	126
20.4882	196
20.4955	215
20.5029	238
20.5103	279
20.5177	331
20.5251	357
20.5325	423
20.5399	446
20.5473	471
20.5547	495
20.5621	542
20.5695	562
20.5769	512
20.5843	500
20.5917	487
20.5991	486
20.6065	470
20.6139	441
20.6213	404
20.6287	390
20.6361	381
20.6435	297
20.6508	308
20.6582	291
20.6656	249
20.6730	215
20.6804	189
20.6878	154
20.6952	162
20.7026	137
20.7100	151
20.7174	130
20.7248	107
20.7322	96
20.7396	72
20.7470	84
20.7544	65
20.7618	59
20.7692	89
20.7766	67
20.7840	65
20.7914	64
20.7988	53
20.8061	49
20.8135	40
20.8209	51
20.8283	61
20.8357	62
20.8431	60
20.8505	76
20.8579	64
20.8653	58
20.8727	60
20.8801	76
20.8875	69
20.8949	76
20.9023	94
20.9097	101
20.9171	101
20.9245	133
20.9319	134
20.9393	151
20.9467	170
20.9541	172
20.9614	199
20.9688	215
20.9762	173
20.9836	227
20.9910	201
20.9984	207
21.0058	237
21.0132	194
21.0206	226
21.0280	170
21.0354	175
21.0428	158
21.0502	185
21.0576	148
21.0650	136
21.0724	128
21.0798	125
21.0872	123
21.0946	118
21.1020	100
21.1094	92
21.1167	116
21.1241	78
21.1315	91
21.1389	62
21.1463	77
21.1537	70
21.1611	51
21.1685	73
21.1759	61
21.1833	59
21.1907	59
21.1981	58
21.2055	81
21.2129	60
21.2203	77
21.2277	67
21.2351	73
21.2425	62
21.2499	66
21.2573	69
21.2647	60
21.2720	60
21.2794	62
21.2868	85
21.2942	60
21.3016	75
21.3090	59
21.3164	64
21.3238	61
21.3312	72
21.3386	57
21.3460	59
21.3534	72
21.3608	58
21.3682	75
21.3756	84
21.3830	57
21.3904	54
21.3978	79
21.4052	74
21.4126	75
21.4200	76
21.4273	79
21.4347	69
21.4421	78
21.4495	60
21.4569	66
21.4643	82
21.4717	90
21.4791	99
21.4865	110
21.4939	139
21.5013	149
21.5087	143
21.5161	175
21.5235	157
21.5309	195
21.5383	195
21.5457	204
21.5531	199
21.5605	217
21.5679	208
21.5753	224
21.5826	235
21.5900	241
21.5974	245
21.6048	223
21.6122	215
21.6196	177
21.6270	213
21.6344	184
21.6418	192
21.6492	201
21.6566	164
21.6640	172
21.6714	168
21.6788	181
21.6862	164
21.6936	172
21.7010	174
21.7084	183
21.7158	213
21.7232	176
21.7306	213
21.7379	203
21.7453	211
21.7527	202
21.7601	220
21.7675	227
21.7749	237
21.7823	219
21.7897	223
21.7971	214
21.8045	231
21.8119	216
21.8193	186
21.8267	190
21.8341	192
21.8415	189
21.8489	167
21.8563	168
21.8637	207
21.8711	169
21.8785	165
21.8859	176
21.8932	176
21.9006	193
21.9080	202
21.9154	264
21.9228	291
21.9302	322
21.9376	378
21.9450	466
21.9524	536
21.9598	645
21.9672	756
21.9746	876
21.9820	942
21.9894	1017
21.9968	1118
22.0042	1190
22.0116	1168
22.0190	1212
22.0264	1310
22.0338	1278
22.0412	1284
22.0485	1272
22.0559	1244
22.0633	1219
22.0707	1078
22.0781	1137
22.0855	1025
22.0929	866
22.1003	856
22.1077	745
22.1151	684
22.1225	634
22.1299	555
22.1373	478
22.1447	437
22.1521	392
22.1595	339
22.1669	290
22.1743	262
22.1817	206
22.1891	173
22.1965	173
22.2039	159
22.2112	157
22.2186	125
22.2260	120
22.2334	100
22.2408	113
22.2482	98
22.2556	95
22.2630	85
22.2704	83
22.2778	104
22.2852	95
22.2926	86
22.3000	90
22.3074	70
22.3148	69
22.3222	58
22.3296	69
22.3370	61
22.3444	70
22.3518	74
22.3592	87
22.3665	75
22.3739	70
22.3813	65
22.3887	59
22.3961	53
22.4035	63
22.4109	60
22.4183	64
22.4257	50
22.4331	68
22.4405	57
22.4479	64
22.4553	55
22.4627	60
22.4701	61
22.4775	54
22.4849	56
22.4923	73
22.4997	63
22.5071	50
22.5145	45
22.5218	62
22.5292	76
22.5366	72
22.5440	60
22.5514	53
22.5588	54
22.5662	59
22.5736	55
22.5810	66
22.5884	42
22.5958	73
22.6032	66
22.6106	60
22.6180	53
22.6254	70
22.6328	70
22.6402	44
22.6476	66
22.6550	71
22.6624	60
22.6698	52
22.6771	64
22.6845	64
22.6919	77
22.6993	78
22.7067	75
22.7141	97
22.7215	97
22.7289	117
22.7363	131
22.7437	165
22.7511	173
22.7585	188
22.7659	197
22.7733	194
22.7807	209
22.7881	225
22.7955	208
22.8029	230
22.8103	251
22.8177	239
22.8251	238
22.8324	207
22.8398	205
22.8472	231
22.8546	207
22.8620	183
22.8694	197
22.8768	169
22.8842	132
22.8916	132
22.8990	141
22.9064	126
22.9138	103
22.9212	119
22.9286	122
22.9360	101
22.9434	84
22.9508	100
22.9582	64
22.9656	64
22.9730	69
22.9804	71
22.9877	68
22.9951	55
23.0025	65
23.0099	60
23.0173	66
23.0247	74
23.0321	62
23.0395	59
23.0469	59
23.0543	54
23.0617	61
23.0691	63
23.0765	61
23.0839	52
23.0913	54
23.0987	59
23.1061	57
23.1135	49
23.1209	50
23.1283	53
23.1357	49
23.1430	60
23.1504	55
23.1578	51
23.1652	58
23.1726	67
23.1800	46
23.1874	55
23.1948	61
23.2022	49
23.2096	54
23.2170	54
23.2244	63
23.2318	52
23.2392	63
23.2466	49
23.2540	53
23.2614	60
23.2688	56
23.2762	67
23.2836	61
23.2910	47
23.2983	46
23.3057	62
23.3131	53
23.3205	65
23.3279	56
23.3353	51
23.3427	54
23.3501	66
23.3575	53
23.3649	55
23.3723	49
23.3797	57
23.3871	71
23.3945	64
23.4019	56
23.4093	54
23.4167	60
23.4241	68
23.4315	66
23.4389	65
23.4463	85
23.4536	63
23.4610	66
23.4684	74
23.4758	88
23.4832	90
23.4906	94
23.4980	85
23.5054	103
23.5128	104
23.5202	103
23.5276	88
23.5350	97
23.5424	108
23.5498	103
23.5572	101
23.5646	106
23.5720	114
23.5794	91
23.5868	81
23.5942	79
23.6016	84
23.6089	81
23.6163	79
23.6237	79
23.6311	77
23.6385	93
23.6459	69
23.6533	77
23.6607	68
23.6681	63
23.6755	74
23.6829	65
23.6903	68
23.6977	68
23.7051	60
23.7125	61
23.7199	77
23.7273	72
23.7347	56
23.7421	46
23.7495	48
23.7569	60
23.7643	64
23.7716	63
23.7790	57
23.7864	68
23.7938	62
23.8012	53
23.8086	72
23.8160	62
23.8234	53
23.8308	52
23.8382	64
23.8456	54
23.8530	55
23.8604	62
23.8678	67
23.8752	66
23.8826	87
23.8900	57
23.8974	94
23.9048	71
23.9122	78
23.9196	96
23.9269	127
23.9343	129
23.9417	120
23.9491	140
23.9565	166
23.9639	184
23.9713	221
23.9787	253
23.9861	293
23.9935	302
24.0009	317
24.0083	354
24.0157	356
24.0231	374
24.0305	377
24.0379	405
24.0453	412
24.0527	398
24.0601	379
24.0675	394
24.0749	418
24.0822	380
24.0896	384
24.0970	357
24.1044	315
24.1118	351
24.1192	308
24.1266	291
24.1340	257
24.1414	257
24.1488	225
24.1562	219
24.1636	179
24.1710	153
24.1784	132
24.1858	152
24.1932	125
24.2006	136
24.2080	111
24.2154	107
24.2228	100
24.2302	108
24.2375	73
24.2449	85
24.2523	82
24.2597	83
24.2671	91
24.2745	70
24.2819	74
24.2893	96
24.2967	89
24.3041	82
24.3115	117
24.3189	116
24.3263	120
24.3337	114
24.3411	114
24.3485	126
24.3559	143
24.3633	169
24.3707	172
24.3781	182
24.3855	225
24.3928	236
24.4002	248
24.4076	271
24.4150	271
24.4224	265
24.4298	268
24.4372	307
24.4446	278
24.4520	301
24.4594	303
24.4668	296
24.4742	323
24.4816	293
24.4890	277
24.4964	277
24.5038	241
24.5112	253
24.5186	192
24.5260	188
24.5334	199
24.5408	178
24.5481	168
24.5555	161
24.5629	135
24.5703	125
24.5777	115
24.5851	111
24.5925	96
24.5999	86
24.6073	108
24.6147	90
24.6221	66
24.6295	79
24.6369	81
24.6443	78
24.6517	62
24.6591	71
24.6665	57
24.6739	78
24.6813	65
24.6887	71
24.6961	75
24.7034	55
24.7108	71
24.7182	53
24.7256	77
24.7330	60
24.7404	53
24.7478	61
24.7552	63
24.7626	61
24.7700	83
24.7774	71
24.7848	79
24.7922	80
24.7996	97
24.8070	92
24.8144	86
24.8218	106
24.8292	93
24.8366	112
24.8440	128
24.8514	93
24.8587	118
24.8661	106
24.8735	102
24.8809	92
24.8883	114
24.8957	85
24.9031	110
24.9105	99
24.9179	100
24.9253	74
24.9327	70
24.9401	80
24.9475	100
24.9549	75
24.9623	75
24.9697	71
24.9771	81
24.9845	65
24.9919	71
24.9993	71
25.0067	73
25.0140	76
25.0214	87
25.0288	56
25.0362	56
25.0436	64
25.0510	58
25.0584	71
25.0658	81
25.0732	64
25.0806	59
25.0880	53
25.0954	60
25.1028	57
25.1102	51
25.1176	69
25.1250	76
25.1324	61
25.1398	55
25.1472	57
25.1546	66
25.1620	60
25.1693	54
25.1767	60
25.1841	69
25.1915	59
25.1989	62
25.2063	66
25.2137	61
25.2211	61
25.2285	56
25.2359	47
25.2433	63
25.2507	62
25.2581	61
25.2655	64
25.2729	64
25.2803	64
25.2877	52
25.2951	68
25.3025	70
25.3099	76
25.3173	78
25.3247	54
25.3320	52
25.3394	61
25.3468	66
25.3542	66
25.3616	59
25.3690	74
25.3764	79
25.3838	69
25.3912	76
25.3986	83
25.4060	83
25.4134	85
25.4208	90
25.4282	85
25.4356	90
25.4430	94
25.4504	122
25.4578	116
25.4652	149
25.4726	184
25.4800	187
25.4873	224
25.4947	238
25.5021	273
25.5095	266
25.5169	290
25.5243	318
25.5317	358
25.5391	380
25.5465	349
25.5539	368
25.5613	388
25.5687	388
25.5761	400
25.5835	369
25.5909	353
25.5983	376
25.6057	400
25.6131	402
25.6205	395
25.6279	322
25.6353	359
25.6426	328
25.6500	331
25.6574	333
25.6648	276
25.6722	278
25.6796	259
25.6870	280
25.6944	238
25.7018	241
25.7092	233
25.7166	212
25.7240	204
25.7314	195
25.7388	190
25.7462	173
25.7536	171
25.7610	145
25.7684	162
25.7758	139
25.7832	134
25.7906	118
25.7979	153
25.8053	114
25.8127	132
25.8201	118
25.8275	119
25.8349	142
25.8423	165
25.8497	142
25.8571	152
25.8645	170
25.8719	173
25.8793	173
25.8867	186
25.8941	205
25.9015	162
25.9089	166
25.9163	174
25.9237	200
25.9311	200
25.9385	242
25.9459	203
25.9532	194
25.9606	159
25.9680	188
25.9754	204
25.9828	165
25.9902	162
25.9976	135
26.0050	152
26.0124	158
26.0198	139
26.0272	149
26.0346	140
26.0420	133
26.0494	99
26.0568	100
26.0642	88
26.0716	93
26.0790	91
26.0864	103
26.0938	86
26.1012	90
26.1085	81
26.1159	88
26.1233	68
26.1307	71
26.1381	83
26.1455	86
26.1529	71
26.1603	73
26.1677	83
26.1751	67
26.1825	67
26.1899	63
26.1973	77
26.2047	77
26.2121	77
26.2195	76
26.2269	70
26.2343	73
26.2417	82
26.2491	65
26.2565	69
26.2638	68
26.2712	82
26.2786	66
26.2860	73
26.2934	88
26.3008	79
26.3082	73
26.3156	94
26.3230	69
26.3304	88
26.3378	58
26.3452	79
26.3526	86
26.3600	88
26.3674	101
26.3748	92
26.3822	84
26.3896	97
26.3970	113
26.4044	94
26.4118	87
26.4191	104
26.4265	155
26.4339	128
26.4413	149
26.4487	136
26.4561	143
26.4635	184
26.4709	223
26.4783	233
26.4857	261
26.4931	342
26.5005	369
26.5079	456
26.5153	537
26.5227	606
26.5301	693
26.5375	724
26.5449	779
26.5523	884
26.5597	947
26.5671	988
26.5744	1064
26.5818	1033
26.5892	1065
26.5966	1095
26.6040	1118
26.6114	1083
26.6188	1084
26.6262	1051
26.6336	1009
26.6410	1029
26.6484	881
26.6558	905
26.6632	810
26.6706	743
26.6780	675
26.6854	660
26.6928	619
26.7002	517
26.7076	475
26.7150	434
26.7224	401
26.7297	343
26.7371	275
26.7445	279
26.7519	238
26.7593	236
26.7667	199
26.7741	157
26.7815	186
26.7889	156
26.7963	129
26.8037	107
26.8111	113
26.8185	124
26.8259	117
26.8333	105
26.8407	99
26.8481	91
26.8555	99
26.8629	87
26.8703	80
26.8777	85
26.8850	87
26.8924	96
26.8998	84
26.9072	81
26.9146	79
26.9220	69
26.9294	76
26.9368	86
26.9442	84
26.9516	69
26.9590	78
26.9664	88
26.9738	76
26.9812	77
26.9886	78
26.9960	75
27.0034	83
27.0108	70
27.0182	62
27.0256	89
27.0330	82
27.0404	70
27.0477	75
27.0551	84
27.0625	69
27.0699	75
27.0773	76
27.0847	71
27.0921	74
27.0995	59
27.1069	68
27.1143	71
27.1217	68
27.1291	63
27.1365	74
27.1439	62
27.1513	60
27.1587	71
27.1661	69
27.1735	48
27.1809	60
27.1883	75
27.1957	74
27.2030	75
27.2104	78
27.2178	72
27.2252	78
27.2326	61
27.2400	64
27.2474	58
27.2548	85
27.2622	78
27.2696	61
27.2770	69
27.2844	77
27.2918	72
27.2992	80
27.3066	76
27.3140	75
27.3214	62
27.3288	90
27.3362	69
27.3436	97
27.3510	82
27.3583	75
27.3657	75
27.3731	90
27.3805	91
27.3879	95
27.3953	96
27.4027	104
27.4101	114
27.4175	118
27.4249	138
27.4323	141
27.4397	152
27.4471	171
27.4545	181
27.4619	231
27.4693	249
27.4767	244
27.4841	285
27.4915	283
27.4989	344
27.5063	338
27.5136	369
27.5210	362
27.5284	374
27.5358	349
27.5432	352
27.5506	381
27.5580	379
27.5654	375
27.5728	382
27.5802	408
27.5876	328
27.5950	344
27.6024	359
27.6098	340
27.6172	288
27.6246	302
27.6320	282
27.6394	271
27.6468	263
27.6542	247
27.6616	233
27.6689	214
27.6763	205
27.6837	152
27.6911	154
27.6985	169
27.7059	123
27.7133	115
27.7207	118
27.7281	121
27.7355	109
27.7429	114
27.7503	109
27.7577	92
27.7651	92
27.7725	94
27.7799	86
27.7873	88
27.7947	78
27.8021	83
27.8095	87
27.8169	79
27.8242	96
27.8316	88
27.8390	99
27.8464	81
27.8538	63
27.8612	72
27.8686	65
27.8760	73
27.8834	58
27.8908	86
27.8982	78
27.9056	72
27.9130	69
27.9204	66
27.9278	79
27.9352	59
27.9426	84
27.9500	68
27.9574	60
27.9648	53
27.9722	64
27.9795	66
27.9869	74
27.9943	69
28.0017	72
28.0091	74
28.0165	67
28.0239	70
28.0313	63
28.0387	69
28.0461	71
28.0535	70
28.0609	64
28.0683	56
28.0757	63
28.0831	82
28.0905	87
28.0979	75
28.1053	72
28.1127	46
28.1201	67
28.1275	59
28.1348	77
28.1422	62
28.1496	62
28.1570	65
28.1644	58
28.1718	46
28.1792	60
28.1866	72
28.1940	84
28.2014	82
28.2088	56
28.2162	70
28.2236	69
28.2310	60
28.2384	69
28.2458	73
28.2532	59
28.2606	77
28.2680	68
28.2754	65
28.2828	64
28.2901	61
28.2975	77
28.3049	60
28.3123	65
28.3197	81
28.3271	75
28.3345	71
28.3419	75
28.3493	84
28.3567	107
28.3641	87
28.3715	91
28.3789	98
28.3863	102
28.3937	98
28.4011	129
28.4085	122
28.4159	139
28.4233	150
28.4307	176
28.4381	214
28.4454	238
28.4528	274
28.4602	271
28.4676	311
28.4750	283
28.4824	315
28.4898	349
28.4972	338
28.5046	361
28.5120	380
28.5194	322
28.5268	347
28.5342	410
28.5416	367
28.5490	347
28.5564	367
28.5638	338
28.5712	324
28.5786	303
28.5860	275
28.5934	278
28.6008	260
28.6081	225
28.6155	240
28.6229	202
28.6303	200
28.6377	205
28.6451	172
28.6525	160
28.6599	127
28.6673	143
28.6747	108
28.6821	132
28.6895	106
28.6969	112
28.7043	107
28.7117	84
28.7191	84
28.7265	95
28.7339	81
28.7413	71
28.7487	85
28.7561	80
28.7634	77
28.7708	72
28.7782	83
28.7856	81
28.7930	71
28.8004	72
28.8078	65
28.8152	81
28.8226	68
28.8300	69
28.8374	78
28.8448	77
28.8522	85
28.8596	93
28.8670	90
28.8744	70
28.8818	78
28.8892	90
28.8966	91
28.9040	98
28.9114	99
28.9187	107
28.9261	106
28.9335	106
28.9409	98
28.9483	100
28.9557	142
28.9631	148
28.9705	133
28.9779	128
28.9853	146
28.9927	139
29.0001	162
29.0075	165
29.0149	174
29.0223	184
29.0297	199
29.0371	205
29.0445	198
29.0519	212
29.0593	203
29.0667	187
29.0740	203
29.0814	219
29.0888	196
29.0962	202
29.1036	220
29.1110	191
29.1184	179
29.1258	170
29.1332	177
29.1406	170
29.1480	165
29.1554	151
29.1628	154
29.1702	121
29.1776	142
29.1850	124
29.1924	119
29.1998	121
29.2072	98
29.2146	99
29.2220	93
29.2293	88
29.2367	78
29.2441	77
29.2515	65
29.2589	88
29.2663	76
29.2737	79
29.2811	66
29.2885	64
29.2959	61
29.3033	73
29.3107	62
29.3181	66
29.3255	66
29.3329	65
29.3403	55
29.3477	67
29.3551	71
29.3625	55
29.3699	50
29.3773	59
29.3846	67
29.3920	56
29.3994	53
29.4068	58
29.4142	55
29.4216	58
29.4290	59
29.4364	40
29.4438	68
29.4512	53
29.4586	47
29.4660	58
29.4734	56
29.4808	68
29.4882	56
29.4956	49
29.5030	66
29.5104	60
29.5178	82
29.5252	65
29.5326	71
29.5399	61
29.5473	59
29.5547	72
29.5621	75
29.5695	68
29.5769	82
29.5843	76
29.5917	58
29.5991	61
29.6065	66
29.6139	92
29.6213	88
29.6287	68
29.6361	72
29.6435	97
29.6509	75
29.6583	68
29.6657	68
29.6731	68
29.6805	69
29.6879	67
29.6952	64
29.7026	58
29.7100	73
29.7174	61
29.7248	64
29.7322	49
29.7396	71
29.7470	65
29.7544	57
29.7618	67
29.7692	65
29.7766	39
29.7840	53
29.7914	45
29.7988	57
29.8062	54
29.8136	61
29.8210	55
29.8284	64
29.8358	57
29.8432	59
29.8505	56
29.8579	60
29.8653	52
29.8727	52
29.8801	65
29.8875	47
29.8949	49
29.9023	58
29.9097	57
29.9171	62
29.9245	74
29.9319	53
29.9393	53
29.9467	46
29.9541	60
29.9615	62
29.9689	48
29.9763	61
29.9837	68
29.9911	47
29.9985	66
30.0058	50
30.0132	57
30.0206	55
30.0280	66
30.0354	50
30.0428	42
30.0502	45
30.0576	67
30.0650	54
30.0724	57
30.0798	66
30.0872	65
30.0946	54
30.1020	59
30.1094	51
30.1168	55
30.1242	43
30.1316	58
30.1390	66
30.1464	47
30.1538	55
30.1612	55
30.1685	59
30.1759	71
30.1833	63
30.1907	42
30.1981	45
30.2055	66
30.2129	64
30.2203	52
30.2277	55
30.2351	68
30.2425	59
30.2499	46
30.2573	55
30.2647	44
30.2721	58
30.2795	67
30.2869	62
30.2943	55
30.3017	62
30.3091	67
30.3165	59
30.3238	61
30.3312	61
30.3386	64
30.3460	54
30.3534	58
30.3608	54
30.3682	58
30.3756	55
30.3830	55
30.3904	51
30.3978	52
30.4052	67
30.4126	57
30.4200	64
30.4274	55
30.4348	70
30.4422	51
30.4496	64
30.4570	64
30.4644	55
30.4718	51
30.4791	61
30.4865	67
30.4939	67
30.5013	58
30.5087	57
30.5161	53
30.5235	66
30.5309	56
30.5383	74
30.5457	56
30.5531	58
30.5605	67
30.5679	73
30.5753	75
30.5827	70
30.5901	89
30.5975	88
30.6049	69
30.6123	84
30.6197	85
30.6271	94
30.6344	99
30.6418	83
30.6492	105
30.6566	88
30.6640	97
30.6714	106
30.6788	83
30.6862	88
30.6936	89
30.7010	111
30.7084	102
30.7158	83
30.7232	99
30.7306	79
30.7380	92
30.7454	87
30.7528	89
30.7602	93
30.7676	84
30.7750	78
30.7824	72
30.7897	79
30.7971	73
30.8045	74
30.8119	65
30.8193	77
30.8267	76
30.8341	78
30.8415	66
30.8489	65
30.8563	70
30.8637	60
30.8711	54
30.8785	62
30.8859	53
30.8933	65
30.9007	63
30.9081	56
30.9155	64
30.9229	47
30.9303	76
30.9377	58
30.9450	61
30.9524	48
30.9598	63
30.9672	62
30.9746	61
30.9820	58
30.9894	64
30.9968	62
31.0042	77
31.0116	61
31.0190	55
31.0264	56
31.0338	61
31.0412	73
31.0486	54
31.0560	44
31.0634	53
31.0708	68
31.0782	50
31.0856	61
31.0930	70
31.1003	71
31.1077	65
31.1151	55
31.1225	50
31.1299	56
31.1373	57
31.1447	52
31.1521	68
31.1595	48
31.1669	62
31.1743	64
31.1817	58
31.1891	48
31.1965	53
31.2039	68
31.2113	42
31.2187	44
31.2261	62
31.2335	59
31.2409	57
31.2483	63
31.2556	77
31.2630	65
31.2704	44
31.2778	48
31.2852	55
31.2926	52
31.3000	56
31.3074	59
31.3148	67
31.3222	55
31.3296	69
31.3370	70
31.3444	83
31.3518	69
31.3592	77
31.3666	79
31.3740	74
31.3814	75
31.3888	81
31.3962	79
31.4036	81
31.4109	113
31.4183	106
31.4257	122
31.4331	148
31.4405	139
31.4479	126
31.4553	124
31.4627	147
31.4701	159
31.4775	143
31.4849	136
31.4923	162
31.4997	178
31.5071	148
31.5145	162
31.5219	173
31.5293	173
31.5367	152
31.5441	168
31.5515	154
31.5589	133
31.5662	124
31.5736	154
31.5810	139
31.5884	137
31.5958	117
31.6032	123
31.6106	123
31.6180	106
31.6254	96
31.6328	120
31.6402	118
31.6476	112
31.6550	107
31.6624	94
31.6698	105
31.6772	98
31.6846	105
31.6920	88
31.6994	91
31.7068	84
31.7142	83
31.7215	89
31.7289	81
31.7363	81
31.7437	81
31.7511	91
31.7585	90
31.7659	83
31.7733	76
31.7807	68
31.7881	72
31.7955	74
31.8029	69
31.8103	68
31.8177	72
31.8251	72
31.8325	51
31.8399	63
31.8473	51
31.8547	72
31.8621	64
31.8695	59
31.8769	59
31.8842	59
31.8916	63
31.8990	68
31.9064	74
31.9138	72
31.9212	84
31.9286	80
31.9360	76
31.9434	80
31.9508	89
31.9582	83
31.9656	90
31.9730	84
31.9804	94
31.9878	91
31.9952	88
32.0026	86
32.0100	78
32.0174	80
32.0248	78
32.0322	96
32.0395	87
32.0469	86
32.0543	98
32.0617	77
32.0691	81
32.0765	95
32.0839	71
32.0913	82
32.0987	75
32.1061	84
32.1135	58
32.1209	64
32.1283	59
32.1357	77
32.1431	69
32.1505	67
32.1579	80
32.1653	63
32.1727	84
32.1801	57
32.1875	56
32.1948	63
32.2022	56
32.2096	67
32.2170	60
32.2244	58
32.2318	48
32.2392	58
32.2466	55
32.2540	50
32.2614	62
32.2688	45
32.2762	56
32.2836	52
32.2910	49
32.2984	55
32.3058	57
32.3132	58
32.3206	60
32.3280	49
32.3354	49
32.3428	51
32.3501	47
32.3575	54
32.3649	53
32.3723	57
32.3797	48
32.3871	48
32.3945	49
32.4019	43
32.4093	59
32.4167	48
32.4241	53
32.4315	48
32.4389	52
32.4463	44
32.4537	56
32.4611	61
32.4685	54
32.4759	58
32.4833	56
32.4907	45
32.4981	58
32.5054	57
32.5128	52
32.5202	56
32.5276	41
32.5350	55
32.5424	65
32.5498	38
32.5572	56
32.5646	43
32.5720	55
32.5794	50
32.5868	52
32.5942	52
32.6016	50
32.6090	61
32.6164	59
32.6238	52
32.6312	64
32.6386	53
32.6460	64
32.6534	55
32.6607	65
32.6681	64
32.6755	42
32.6829	45
32.6903	49
32.6977	60
32.7051	55
32.7125	51
32.7199	58
32.7273	42
32.7347	34
32.7421	44
32.7495	54
32.7569	65
32.7643	49
32.7717	44
32.7791	66
32.7865	51
32.7939	56
32.8013	52
32.8087	57
32.8160	45
32.8234	64
32.8308	69
32.8382	53
32.8456	46
32.8530	48
32.8604	53
32.8678	52
32.8752	60
32.8826	68
32.8900	66
32.8974	67
32.9048	62
32.9122	59
32.9196	65
32.9270	61
32.9344	60
32.9418	53
32.9492	53
32.9566	65
32.9640	62
32.9713	61
32.9787	53
32.9861	60
32.9935	64
33.0009	68
33.0083	60
33.0157	58
33.0231	62
33.0305	54
33.0379	51
33.0453	67
33.0527	58
33.0601	51
33.0675	60
33.0749	55
33.0823	66
33.0897	59
33.0971	58
33.1045	67
33.1119	40
33.1193	67
33.1266	57
33.1340	64
33.1414	56
33.1488	65
33.1562	59
33.1636	67
33.1710	55
33.1784	64
33.1858	54
33.1932	48
33.2006	45
33.2080	67
33.2154	71
33.2228	53
33.2302	71
33.2376	62
33.2450	62
33.2524	59
33.2598	61
33.2672	54
33.2746	61
33.2819	59
33.2893	56
33.2967	53
33.3041	49
33.3115	63
33.3189	64
33.3263	59
33.3337	42
33.3411	73
33.3485	63
33.3559	70
33.3633	80
33.3707	69
33.3781	75
33.3855	84
33.3929	72
33.4003	81
33.4077	85
33.4151	67
33.4225	85
33.4299	84
33.4373	88
33.4446	78
33.4520	64
33.4594	86
33.4668	100
33.4742	78
33.4816	97
33.4890	80
33.4964	81
33.5038	95
33.5112	106
33.5186	109
33.5260	99
33.5334	148
33.5408	128
33.5482	165
33.5556	161
33.5630	162
33.5704	182
33.5778	205
33.5852	203
33.5926	205
33.5999	200
33.6073	216
33.6147	246
33.6221	251
33.6295	241
33.6369	275
33.6443	252
33.6517	263
33.6591	250
33.6665	280
33.6739	251
33.6813	210
33.6887	232
33.6961	226
33.7035	225
33.7109	212
33.7183	206
33.7257	211
33.7331	191
33.7405	187
33.7479	183
33.7552	144
33.7626	153
33.7700	146
33.7774	158
33.7848	135
33.7922	115
33.7996	119
33.8070	125
33.8144	88
33.8218	97
33.8292	84
33.8366	94
33.8440	94
33.8514	82
33.8588	78
33.8662	76
33.8736	91
33.8810	76
33.8884	76
33.8958	73
33.9032	68
33.9105	78
33.9179	76
33.9253	69
33.9327	77
33.9401	94
33.9475	75
33.9549	61
33.9623	81
33.9697	66
33.9771	82
33.9845	67
33.9919	89
33.9993	85
34.0067	86
34.0141	97
34.0215	84
34.0289	98
34.0363	95
34.0437	98
34.0511	77
34.0585	59
34.0658	92
34.0732	79
34.0806	96
34.0880	107
34.0954	83
34.1028	97
34.1102	91
34.1176	94
34.1250	90
34.1324	83
34.1398	98
34.1472	85
34.1546	92
34.1620	97
34.1694	66
34.1768	86
34.1842	66
34.1916	76
34.1990	83
34.2064	82
34.2138	78
34.2211	75
34.2285	89
34.2359	78
34.2433	66
34.2507	69
34.2581	68
34.2655	76
34.2729	65
34.2803	62
34.2877	66
34.2951	55
34.3025	57
34.3099	52
34.3173	58
34.3247	66
34.3321	47
34.3395	69
34.3469	58
34.3543	51
34.3617	56
34.3691	55
34.3764	75
34.3838	44
34.3912	53
34.3986	57
34.4060	47
34.4134	55
34.4208	49
34.4282	50
34.4356	52
34.4430	55
34.4504	43
34.4578	62
34.4652	55
34.4726	60
34.4800	70
34.4874	51
34.4948	72
34.5022	55
34.5096	57
34.5170	58
34.5244	63
34.5317	51
34.5391	52
34.5465	47
34.5539	55
34.5613	53
34.5687	53
34.5761	60
34.5835	45
34.5909	52
34.5983	46
34.6057	56
34.6131	49
34.6205	73
34.6279	60
34.6353	57
34.6427	48
34.6501	56
34.6575	52
34.6649	52
34.6723	61
34.6797	49
34.6870	55
34.6944	57
34.7018	57
34.7092	47
34.7166	54
34.7240	62
34.7314	62
34.7388	60
34.7462	58
34.7536	49
34.7610	50
34.7684	51
34.7758	50
34.7832	47
34.7906	44
34.7980	48
34.8054	42
34.8128	49
34.8202	45
34.8276	56
34.8350	55
34.8423	55
34.8497	61
34.8571	57
34.8645	51
34.8719	40
34.8793	59
34.8867	47
34.8941	68
34.9015	63
34.9089	50
34.9163	54
34.9237	58
34.9311	48
34.9385	65
34.9459	47
34.9533	68
34.9607	53
34.9681	50
34.9755	51
34.9829	71
34.9903	68
34.9977	55
35.0050	50
35.0124	49
35.0198	66
35.0272	50
35.0346	56
35.0420	63
35.0494	44
35.0568	70
35.0642	61
35.0716	62
35.0790	67
35.0864	60
35.0938	63
35.1012	61
35.1086	62
35.1160	72
35.1234	60
35.1308	62
35.1382	52
35.1456	55
35.1530	63
35.1603	62
35.1677	47
35.1751	67
35.1825	88
35.1899	77
35.1973	93
35.2047	73
35.2121	75
35.2195	70
35.2269	78
35.2343	82
35.2417	87
35.2491	83
35.2565	96
35.2639	88
35.2713	90
35.2787	86
35.2861	77
35.2935	76
35.3009	86
35.3083	84
35.3156	75
35.3230	78
35.3304	68
35.3378	85
35.3452	95
35.3526	72
35.3600	74
35.3674	65
35.3748	58
35.3822	64
35.3896	61
35.3970	76
35.4044	67
35.4118	39
35.4192	62
35.4266	59
35.4340	59
35.4414	72
35.4488	56
35.4562	58
35.4636	55
35.4709	79
35.4783	48
35.4857	55
35.4931	76
35.5005	53
35.5079	67
35.5153	48
35.5227	60
35.5301	54
35.5375	76
35.5449	57
35.5523	58
35.5597	65
35.5671	53
35.5745	59
35.5819	61
35.5893	63
35.5967	69
35.6041	63
35.6115	67
35.6189	67
35.6262	59
35.6336	61
35.6410	64
35.6484	62
35.6558	51
35.6632	67
35.6706	65
35.6780	54
35.6854	64
35.6928	50
35.7002	47
35.7076	82
35.7150	62
35.7224	47
35.7298	43
35.7372	60
35.7446	60
35.7520	56
35.7594	65
35.7668	73
35.7742	49
35.7815	55
35.7889	63
35.7963	58
35.8037	57
35.8111	59
35.8185	50
35.8259	54
35.8333	48
35.8407	46
35.8481	60
35.8555	47
35.8629	62
35.8703	63
35.8777	67
35.8851	62
35.8925	48
35.8999	58
35.9073	59
35.9147	56
35.9221	49
35.9295	58
35.9368	57
35.9442	48
35.9516	68
35.9590	58
35.9664	80
35.9738	66
35.9812	52
35.9886	60
35.9960	60
36.0034	59
36.0108	52
36.0182	52
36.0256	65
36.0330	81
36.0404	74
36.0478	84
36.0552	89
36.0626	88
36.0700	101
36.0774	83
36.0848	108
36.0921	106
36.0995	107
36.1069	118
36.1143	102
36.1217	106
36.1291	119
36.1365	138
36.1439	128
36.1513	106
36.1587	114
36.1661	117
36.1735	134
36.1809	137
36.1883	123
36.1957	157
36.2031	134
36.2105	127
36.2179	144
36.2253	122
36.2327	125
36.2401	131
36.2474	136
36.2548	128
36.2622	113
36.2696	123
36.2770	104
36.2844	105
36.2918	129
36.2992	118
36.3066	96
36.3140	124
36.3214	116
36.3288	105
36.3362	115
36.3436	106
36.3510	118
36.3584	100
36.3658	112
36.3732	108
36.3806	118
36.3880	108
36.3954	108
36.4027	84
36.4101	99
36.4175	106
36.4249	88
36.4323	108
36.4397	95
36.4471	88
36.4545	97
36.4619	109
36.4693	91
36.4767	86
36.4841	74
36.4915	67
36.4989	81
36.5063	48
36.5137	93
36.5211	78
36.5285	84
36.5359	62
36.5433	77
36.5507	53
36.5580	66
36.5654	71
36.5728	61
36.5802	51
36.5876	61
36.5950	59
36.6024	48
36.6098	60
36.6172	59
36.6246	66
36.6320	59
36.6394	59
36.6468	58
36.6542	53
36.6616	40
36.6690	54
36.6764	39
36.6838	44
36.6912	56
36.6986	50
36.7060	55
36.7134	58
36.7207	63
36.7281	48
36.7355	46
36.7429	61
36.7503	59
36.7577	45
36.7651	44
36.7725	60
36.7799	50
36.7873	49
36.7947	44
36.8021	46
36.8095	60
36.8169	57
36.8243	55
36.8317	47
36.8391	65
36.8465	49
36.8539	54
36.8613	53
36.8687	43
36.8760	57
36.8834	56
36.8908	47
36.8982	51
36.9056	44
36.9130	58
36.9204	49
36.9278	46
36.9352	59
36.9426	48
36.9500	45
36.9574	51
36.9648	43
36.9722	47
36.9796	49
36.9870	44
36.9944	56
37.0018	41
37.0092	51
37.0166	59
37.0240	47
37.0313	54
37.0387	57
37.0461	58
37.0535	56
37.0609	46
37.0683	46
37.0757	53
37.0831	51
37.0905	49
37.0979	50
37.1053	67
37.1127	51
37.1201	61
37.1275	56
37.1349	67
37.1423	44
37.1497	58
37.1571	69
37.1645	72
37.1719	54
37.1793	73
37.1866	67
37.1940	51
37.2014	66
37.2088	68
37.2162	67
37.2236	87
37.2310	63
37.2384	69
37.2458	69
37.2532	74
37.2606	74
37.2680	68
37.2754	75
37.2828	60
37.2902	58
37.2976	73
37.3050	59
37.3124	70
37.3198	62
37.3272	70
37.3346	70
37.3419	65
37.3493	67
37.3567	70
37.3641	60
37.3715	70
37.3789	43
37.3863	72
37.3937	47
37.4011	48
37.4085	54
37.4159	60
37.4233	46
37.4307	45
37.4381	50
37.4455	55
37.4529	61
37.4603	56
37.4677	44
37.4751	45
37.4825	42
37.4899	71
37.4972	53
37.5046	49
37.5120	48
37.5194	45
37.5268	66
37.5342	74
37.5416	57
37.5490	57
37.5564	66
37.5638	55
37.5712	54
37.5786	64
37.5860	64
37.5934	59
37.6008	51
37.6082	67
37.6156	55
37.6230	64
37.6304	65
37.6378	67
37.6452	80
37.6525	62
37.6599	69
37.6673	75
37.6747	81
37.6821	70
37.6895	79
37.6969	90
37.7043	93
37.7117	76
37.7191	98
37.7265	105
37.7339	101
37.7413	121
37.7487	104
37.7561	124
37.7635	116
37.7709	115
37.7783	103
37.7857	113
37.7931	111
37.8005	101
37.8078	116
37.8152	124
37.8226	114
37.8300	100
37.8374	102
37.8448	107
37.8522	94
37.8596	101
37.8670	76
37.8744	92
37.8818	76
37.8892	97
37.8966	75
37.9040	72
37.9114	60
37.9188	88
37.9262	59
37.9336	79
37.9410	54
37.9484	78
37.9558	71
37.9631	63
37.9705	58
37.9779	56
37.9853	69
37.9927	68
38.0001	46
38.0075	59
38.0149	60
38.0223	48
38.0297	64
38.0371	63
38.0445	57
38.0519	51
38.0593	61
38.0667	58
38.0741	62
38.0815	58
38.0889	46
38.0963	58
38.1037	55
38.1111	44
38.1184	51
38.1258	52
38.1332	50
38.1406	59
38.1480	52
38.1554	65
38.1628	44
38.1702	65
38.1776	45
38.1850	49
38.1924	41
38.1998	43
38.2072	67
38.2146	68
38.2220	62
38.2294	73
38.2368	57
38.2442	46
38.2516	59
38.2590	65
38.2664	61
38.2738	60
38.2811	54
38.2885	67
38.2959	75
38.3033	76
38.3107	70
38.3181	64
38.3255	58
38.3329	76
38.3403	79
38.3477	103
38.3551	69
38.3625	64
38.3699	74
38.3773	83
38.3847	82
38.3921	77
38.3995	67
38.4069	90
38.4143	80
38.4217	62
38.4291	95
38.4364	70
38.4438	72
38.4512	90
38.4586	79
38.4660	66
38.4734	82
38.4808	79
38.4882	88
38.4956	101
38.5030	105
38.5104	89
38.5178	90
38.5252	89
38.5326	91
38.5400	96
38.5474	91
38.5548	75
38.5622	96
38.5696	86
38.5770	81
38.5844	94
38.5917	70
38.5991	78
38.6065	91
38.6139	79
38.6213	74
38.6287	89
38.6361	68
38.6435	88
38.6509	81
38.6583	81
38.6657	77
38.6731	70
38.6805	59
38.6879	61
38.6953	68
38.7027	66
38.7101	73
38.7175	55
38.7249	48
38.7323	69
38.7397	54
38.7470	49
38.7544	59
38.7618	54
38.7692	60
38.7766	57
38.7840	51
38.7914	59
38.7988	46
38.8062	45
38.8136	44
38.8210	52
38.8284	61
38.8358	52
38.8432	57
38.8506	45
38.8580	44
38.8654	51
38.8728	57
38.8802	69
38.8876	50
38.8950	55
38.9023	63
38.9097	50
38.9171	60
38.9245	49
38.9319	52
38.9393	49
38.9467	40
38.9541	52
38.9615	62
38.9689	59
38.9763	62
38.9837	59
38.9911	45
38.9985	60
39.0059	53
39.0133	51
39.0207	52
39.0281	60
39.0355	52
39.0429	60
39.0503	43
39.0576	41
39.0650	53
39.0724	59
39.0798	56
39.0872	53
39.0946	44
39.1020	49
39.1094	46
39.1168	53
39.1242	62
39.1316	30
39.1390	54
39.1464	61
39.1538	60
39.1612	43
39.1686	45
39.1760	42
39.1834	60
39.1908	53
39.1982	64
39.2056	56
39.2129	65
39.2203	62
39.2277	62
39.2351	66
39.2425	65
39.2499	44
39.2573	69
39.2647	48
39.2721	69
39.2795	69
39.2869	88
39.2943	81
39.3017	70
39.3091	83
39.3165	74
39.3239	79
39.3313	92
39.3387	82
39.3461	104
39.3535	99
39.3609	93
39.3682	103
39.3756	87
39.3830	99
39.3904	82
39.3978	116
39.4052	95
39.4126	102
39.4200	118
39.4274	124
39.4348	89
39.4422	114
39.4496	100
39.4570	98
39.4644	91
39.4718	113
39.4792	128
39.4866	97
39.4940	110
39.5014	107
39.5088	128
39.5162	112
39.5235	107
39.5309	112
39.5383	119
39.5457	123
39.5531	110
39.5605	121
39.5679	119
39.5753	75
39.5827	92
39.5901	87
39.5975	93
39.6049	92
39.6123	89
39.6197	89
39.6271	97
39.6345	90
39.6419	76
39.6493	69
39.6567	86
39.6641	71
39.6715	71
39.6788	89
39.6862	80
39.6936	84
39.7010	74
39.7084	74
39.7158	75
39.7232	51
39.7306	68
39.7380	54
39.7454	64
39.7528	70
39.7602	75
39.7676	69
39.7750	69
39.7824	57
39.7898	61
39.7972	66
39.8046	67
39.8120	73
39.8194	71
39.8268	69
39.8342	56
39.8415	86
39.8489	71
39.8563	69
39.8637	72
39.8711	70
39.8785	72
39.8859	77
39.8933	68
39.9007	62
39.9081	78
39.9155	70
39.9229	66
39.9303	70
39.9377	68
39.9451	68
39.9525	68
39.9599	77
39.9673	73
39.9747	65
39.9821	58
39.9895	58
39.9968	63
