2.0000	193
2.0074	163
2.0148	166
2.0222	176
2.0296	191
2.0370	176
2.0444	170
2.0518	167
2.0592	204
2.0666	170
2.0740	169
2.0813	204
2.0887	166
2.0961	169
2.1035	182
2.1109	186
2.1183	198
2.1257	178
2.1331	170
2.1405	180
2.1479	154
2.1553	175
2.1627	189
2.1701	184
2.1775	153
2.1849	190
2.1923	175
2.1997	167
2.2071	183
2.2145	199
2.2219	190
2.2293	176
2.2366	153
2.2440	160
2.2514	160
2.2588	188
2.2662	172
2.2736	181
2.2810	164
2.2884	193
2.2958	190
2.3032	186
2.3106	187
2.3180	167
2.3254	182
2.3328	153
2.3402	172
2.3476	173
2.3550	155
2.3624	163
2.3698	188
2.3772	164
2.3846	172
2.3919	163
2.3993	170
2.4067	161
2.4141	173
2.4215	152
2.4289	147
2.4363	184
2.4437	183
2.4511	160
2.4585	158
2.4659	173
2.4733	153
2.4807	171
2.4881	165
2.4955	144
2.5029	145
2.5103	161
2.5177	167
2.5251	171
2.5325	132
2.5399	151
2.5472	153
2.5546	171
2.5620	146
2.5694	150
2.5768	178
2.5842	148
2.5916	147
2.5990	175
2.6064	154
2.6138	168
2.6212	147
2.6286	152
2.6360	184
2.6434	163
2.6508	142
2.6582	148
2.6656	158
2.6730	166
2.6804	169
2.6878	149
2.6952	144
2.7025	142
2.7099	152
2.7173	149
2.7247	150
2.7321	153
2.7395	153
2.7469	137
2.7543	152
2.7617	148
2.7691	138
2.7765	158
2.7839	131
2.7913	158
2.7987	136
2.8061	152
2.8135	148
2.8209	154
2.8283	116
2.8357	140
2.8431	133
2.8505	150
2.8579	157
2.8652	147
2.8726	135
2.8800	127
2.8874	140
2.8948	156
2.9022	149
2.9096	130
2.9170	126
2.9244	151
2.9318	141
2.9392	113
2.9466	136
2.9540	153
2.9614	138
2.9688	147
2.9762	135
2.9836	157
2.9910	132
2.9984	126
3.0058	137
3.0132	125
3.0205	137
3.0279	111
3.0353	137
3.0427	131
3.0501	113
3.0575	143
3.0649	126
3.0723	130
3.0797	135
3.0871	137
3.0945	127
3.1019	134
3.1093	121
3.1167	107
3.1241	124
3.1315	119
3.1389	132
3.1463	141
3.1537	136
3.1611	129
3.1685	131
3.1758	125
3.1832	127
3.1906	116
3.1980	110
3.2054	111
3.2128	107
3.2202	122
3.2276	122
3.2350	137
3.2424	129
3.2498	129
3.2572	108
3.2646	125
3.2720	130
3.2794	121
3.2868	147
3.2942	122
3.3016	121
3.3090	129
3.3164	118
3.3238	132
3.3311	102
3.3385	103
3.3459	125
3.3533	119
3.3607	103
3.3681	123
3.3755	103
3.3829	107
3.3903	105
3.3977	135
3.4051	130
3.4125	119
3.4199	124
3.4273	131
3.4347	97
3.4421	115
3.4495	104
3.4569	119
3.4643	104
3.4717	105
3.4791	117
3.4864	122
3.4938	112
3.5012	117
3.5086	121
3.5160	106
3.5234	130
3.5308	120
3.5382	125
3.5456	118
3.5530	119
3.5604	104
3.5678	108
3.5752	102
3.5826	112
3.5900	121
3.5974	131
3.6048	112
3.6122	96
3.6196	111
3.6270	104
3.6344	104
3.6417	101
3.6491	91
3.6565	115
3.6639	107
3.6713	123
3.6787	102
3.6861	113
3.6935	122
3.7009	83
3.7083	115
3.7157	101
3.7231	105
3.7305	93
3.7379	102
3.7453	100
3.7527	105
3.7601	114
3.7675	125
3.7749	101
3.7823	111
3.7897	102
3.7970	100
3.8044	110
3.8118	100
3.8192	106
3.8266	100
3.8340	90
3.8414	112
3.8488	106
3.8562	89
3.8636	94
3.8710	88
3.8784	88
3.8858	104
3.8932	97
3.9006	87
3.9080	101
3.9154	108
3.9228	100
3.9302	95
3.9376	88
3.9450	116
3.9523	92
3.9597	79
3.9671	96
3.9745	97
3.9819	86
3.9893	88
3.9967	91
4.0041	100
4.0115	109
4.0189	97
4.0263	80
4.0337	104
4.0411	109
4.0485	97
4.0559	90
4.0633	98
4.0707	88
4.0781	127
4.0855	81
4.0929	84
4.1003	84
4.1076	89
4.1150	97
4.1224	94
4.1298	74
4.1372	82
4.1446	72
4.1520	87
4.1594	88
4.1668	71
4.1742	89
4.1816	94
4.1890	101
4.1964	78
4.2038	93
4.2112	107
4.2186	76
4.2260	82
4.2334	81
4.2408	80
4.2482	96
4.2556	74
4.2629	105
4.2703	79
4.2777	84
4.2851	73
4.2925	76
4.2999	72
4.3073	92
4.3147	72
4.3221	85
4.3295	77
4.3369	73
4.3443	74
4.3517	98
4.3591	78
4.3665	89
4.3739	74
4.3813	75
4.3887	69
4.3961	78
4.4035	86
4.4109	86
4.4183	79
4.4256	58
4.4330	83
4.4404	73
4.4478	94
4.4552	79
4.4626	76
4.4700	85
4.4774	71
4.4848	77
4.4922	75
4.4996	73
4.5070	79
4.5144	83
4.5218	59
4.5292	81
4.5366	67
4.5440	78
4.5514	75
4.5588	71
4.5662	87
4.5736	70
4.5809	80
4.5883	82
4.5957	74
4.6031	86
4.6105	66
4.6179	83
4.6253	65
4.6327	76
4.6401	71
4.6475	57
4.6549	85
4.6623	69
4.6697	83
4.6771	64
4.6845	82
4.6919	73
4.6993	64
4.7067	74
4.7141	77
4.7215	58
4.7289	73
4.7362	78
4.7436	76
4.7510	73
4.7584	75
4.7658	78
4.7732	72
4.7806	69
4.7880	60
4.7954	67
4.8028	83
4.8102	60
4.8176	82
4.8250	66
4.8324	74
4.8398	69
4.8472	78
4.8546	76
4.8620	71
4.8694	64
4.8768	62
4.8842	64
4.8915	76
4.8989	77
4.9063	81
4.9137	84
4.9211	66
4.9285	62
4.9359	67
4.9433	75
4.9507	62
4.9581	72
4.9655	92
4.9729	60
4.9803	69
4.9877	79
4.9951	71
5.0025	90
5.0099	72
5.0173	75
5.0247	59
5.0321	69
5.0395	72
5.0468	53
5.0542	75
5.0616	72
5.0690	73
5.0764	54
5.0838	77
5.0912	60
5.0986	85
5.1060	67
5.1134	73
5.1208	80
5.1282	73
5.1356	79
5.1430	50
5.1504	65
5.1578	59
5.1652	68
5.1726	58
5.1800	71
5.1874	71
5.1948	72
5.2021	68
5.2095	71
5.2169	86
5.2243	58
5.2317	69
5.2391	60
5.2465	59
5.2539	75
5.2613	70
5.2687	62
5.2761	77
5.2835	75
5.2909	69
5.2983	76
5.3057	76
5.3131	75
5.3205	75
5.3279	65
5.3353	68
5.3427	70
5.3501	71
5.3574	64
5.3648	64
5.3722	85
5.3796	75
5.3870	70
5.3944	67
5.4018	61
5.4092	81
5.4166	86
5.4240	76
5.4314	88
5.4388	80
5.4462	69
5.4536	80
5.4610	61
5.4684	97
5.4758	76
5.4832	74
5.4906	70
5.4980	66
5.5054	59
5.5127	62
5.5201	71
5.5275	77
5.5349	77
5.5423	77
5.5497	72
5.5571	85
5.5645	81
5.5719	86
5.5793	97
5.5867	66
5.5941	69
5.6015	55
5.6089	83
5.6163	77
5.6237	85
5.6311	84
5.6385	84
5.6459	73
5.6533	78
5.6607	83
5.6680	80
5.6754	90
5.6828	96
5.6902	86
5.6976	98
5.7050	100
5.7124	121
5.7198	100
5.7272	124
5.7346	95
5.7420	128
5.7494	124
5.7568	140
5.7642	131
5.7716	149
5.7790	143
5.7864	146
5.7938	177
5.8012	140
5.8086	205
5.8160	199
5.8233	212
5.8307	245
5.8381	259
5.8455	225
5.8529	310
5.8603	312
5.8677	316
5.8751	344
5.8825	401
5.8899	401
5.8973	387
5.9047	435
5.9121	555
5.9195	595
5.9269	651
5.9343	727
5.9417	845
5.9491	935
5.9565	1082
5.9639	1206
5.9713	1480
5.9786	1777
5.9860	2243
5.9934	2776
6.0008	3401
6.0082	4008
6.0156	4647
6.0230	4948
6.0304	4857
6.0378	4382
6.0452	3787
6.0526	2904
6.0600	2282
6.0674	1702
6.0748	1191
6.0822	874
6.0896	678
6.0970	529
6.1044	423
6.1118	331
6.1192	272
6.1266	258
6.1340	236
6.1413	215
6.1487	181
6.1561	214
6.1635	176
6.1709	174
6.1783	172
6.1857	143
6.1931	153
6.2005	162
6.2079	124
6.2153	155
6.2227	128
6.2301	132
6.2375	134
6.2449	116
6.2523	127
6.2597	108
6.2671	107
6.2745	120
6.2819	116
6.2893	114
6.2966	128
6.3040	112
6.3114	94
6.3188	122
6.3262	96
6.3336	125
6.3410	119
6.3484	112
6.3558	100
6.3632	98
6.3706	115
6.3780	109
6.3854	102
6.3928	79
6.4002	102
6.4076	106
6.4150	91
6.4224	95
6.4298	84
6.4372	88
6.4446	81
6.4519	111
6.4593	98
6.4667	95
6.4741	88
6.4815	107
6.4889	113
6.4963	76
6.5037	104
6.5111	112
6.5185	106
6.5259	89
6.5333	93
6.5407	84
6.5481	99
6.5555	101
6.5629	83
6.5703	93
6.5777	96
6.5851	112
6.5925	95
6.5999	97
6.6072	96
6.6146	70
6.6220	84
6.6294	79
6.6368	83
6.6442	89
6.6516	84
6.6590	79
6.6664	87
6.6738	83
6.6812	70
6.6886	89
6.6960	87
6.7034	92
6.7108	69
6.7182	100
6.7256	83
6.7330	73
6.7404	94
6.7478	72
6.7552	90
6.7625	80
6.7699	75
6.7773	70
6.7847	89
6.7921	82
6.7995	59
6.8069	73
6.8143	75
6.8217	84
6.8291	69
6.8365	80
6.8439	95
6.8513	83
6.8587	80
6.8661	96
6.8735	77
6.8809	63
6.8883	90
6.8957	83
6.9031	74
6.9105	64
6.9178	84
6.9252	87
6.9326	79
6.9400	84
6.9474	67
6.9548	64
6.9622	68
6.9696	72
6.9770	84
6.9844	71
6.9918	79
6.9992	65
7.0066	75
7.0140	63
7.0214	70
7.0288	82
7.0362	68
7.0436	70
7.0510	72
7.0584	71
7.0658	77
7.0731	57
7.0805	75
7.0879	68
7.0953	63
7.1027	88
7.1101	66
7.1175	73
7.1249	61
7.1323	63
7.1397	67
7.1471	78
7.1545	76
7.1619	79
7.1693	66
7.1767	54
7.1841	70
7.1915	60
7.1989	62
7.2063	67
7.2137	76
7.2211	73
7.2284	67
7.2358	62
7.2432	88
7.2506	65
7.2580	68
7.2654	65
7.2728	64
7.2802	87
7.2876	62
7.2950	67
7.3024	59
7.3098	80
7.3172	64
7.3246	73
7.3320	66
7.3394	76
7.3468	74
7.3542	65
7.3616	61
7.3690	65
7.3764	55
7.3837	73
7.3911	56
7.3985	70
7.4059	82
7.4133	72
7.4207	53
7.4281	71
7.4355	63
7.4429	65
7.4503	68
7.4577	89
7.4651	61
7.4725	53
7.4799	63
7.4873	78
7.4947	58
7.5021	51
7.5095	70
7.5169	68
7.5243	62
7.5317	70
7.5390	70
7.5464	63
7.5538	58
7.5612	62
7.5686	79
7.5760	64
7.5834	71
7.5908	69
7.5982	69
7.6056	59
7.6130	65
7.6204	66
7.6278	51
7.6352	67
7.6426	52
7.6500	80
7.6574	63
7.6648	50
7.6722	57
7.6796	55
7.6870	58
7.6944	83
7.7017	60
7.7091	76
7.7165	59
7.7239	62
7.7313	68
7.7387	56
7.7461	57
7.7535	57
7.7609	73
7.7683	50
7.7757	80
7.7831	63
7.7905	59
7.7979	63
7.8053	60
7.8127	67
7.8201	62
7.8275	54
7.8349	52
7.8423	57
7.8497	65
7.8570	61
7.8644	61
7.8718	63
7.8792	69
7.8866	55
7.8940	72
7.9014	56
7.9088	77
7.9162	46
7.9236	61
7.9310	66
7.9384	64
7.9458	65
7.9532	55
7.9606	60
7.9680	63
7.9754	70
7.9828	59
7.9902	73
7.9976	54
8.0050	65
8.0123	61
8.0197	56
8.0271	60
8.0345	56
8.0419	55
8.0493	74
8.0567	61
8.0641	69
8.0715	78
8.0789	78
8.0863	77
8.0937	67
8.1011	71
8.1085	58
8.1159	83
8.1233	77
8.1307	59
8.1381	65
8.1455	64
8.1529	61
8.1603	72
8.1676	84
8.1750	100
8.1824	74
8.1898	82
8.1972	77
8.2046	83
8.2120	79
8.2194	99
8.2268	89
8.2342	95
8.2416	101
8.2490	106
8.2564	119
8.2638	122
8.2712	101
8.2786	124
8.2860	138
8.2934	120
8.3008	109
8.3082	142
8.3156	167
8.3229	137
8.3303	157
8.3377	195
8.3451	172
8.3525	211
8.3599	222
8.3673	250
8.3747	257
8.3821	261
8.3895	300
8.3969	332
8.4043	370
8.4117	361
8.4191	484
8.4265	509
8.4339	558
8.4413	659
8.4487	751
8.4561	840
8.4635	956
8.4709	1233
8.4782	1450
8.4856	1776
8.4930	2145
8.5004	2478
8.5078	2816
8.5152	3051
8.5226	3144
8.5300	2951
8.5374	2697
8.5448	2461
8.5522	1979
8.5596	1601
8.5670	1223
8.5744	961
8.5818	701
8.5892	579
8.5966	465
8.6040	336
8.6114	278
8.6188	216
8.6262	188
8.6335	179
8.6409	158
8.6483	139
8.6557	117
8.6631	127
8.6705	122
8.6779	106
8.6853	115
8.6927	114
8.7001	103
8.7075	97
8.7149	87
8.7223	123
8.7297	99
8.7371	113
8.7445	78
8.7519	102
8.7593	93
8.7667	106
8.7741	92
8.7815	90
8.7888	80
8.7962	90
8.8036	87
8.8110	92
8.8184	78
8.8258	93
8.8332	82
8.8406	84
8.8480	82
8.8554	89
8.8628	108
8.8702	76
8.8776	79
8.8850	68
8.8924	76
8.8998	78
8.9072	73
8.9146	74
8.9220	74
8.9294	76
8.9368	70
8.9441	90
8.9515	82
8.9589	84
8.9663	78
8.9737	85
8.9811	82
8.9885	65
8.9959	67
9.0033	71
9.0107	68
9.0181	77
9.0255	75
9.0329	79
9.0403	74
9.0477	70
9.0551	86
9.0625	96
9.0699	68
9.0773	69
9.0847	72
9.0921	74
9.0994	75
9.1068	65
9.1142	65
9.1216	72
9.1290	68
9.1364	68
9.1438	64
9.1512	57
9.1586	68
9.1660	82
9.1734	62
9.1808	71
9.1882	76
9.1956	55
9.2030	67
9.2104	61
9.2178	58
9.2252	70
9.2326	64
9.2400	70
9.2474	61
9.2548	63
9.2621	71
9.2695	56
9.2769	65
9.2843	64
9.2917	75
9.2991	73
9.3065	63
9.3139	68
9.3213	65
9.3287	67
9.3361	64
9.3435	74
9.3509	57
9.3583	70
9.3657	57
9.3731	67
9.3805	70
9.3879	65
9.3953	71
9.4027	57
9.4101	70
9.4174	58
9.4248	62
9.4322	75
9.4396	58
9.4470	68
9.4544	60
9.4618	57
9.4692	56
9.4766	67
9.4840	57
9.4914	67
9.4988	63
9.5062	76
9.5136	55
9.5210	48
9.5284	49
9.5358	49
9.5432	70
9.5506	63
9.5580	69
9.5654	76
9.5727	70
9.5801	41
9.5875	58
9.5949	63
9.6023	50
9.6097	63
9.6171	46
9.6245	63
9.6319	75
9.6393	68
9.6467	57
9.6541	52
9.6615	67
9.6689	61
9.6763	70
9.6837	62
9.6911	54
9.6985	60
9.7059	52
9.7133	57
9.7207	56
9.7280	65
9.7354	65
9.7428	56
9.7502	65
9.7576	58
9.7650	68
9.7724	44
9.7798	48
9.7872	59
9.7946	58
9.8020	52
9.8094	63
9.8168	59
9.8242	53
9.8316	52
9.8390	58
9.8464	63
9.8538	61
9.8612	67
9.8686	53
9.8760	58
9.8833	53
9.8907	52
9.8981	51
9.9055	48
9.9129	43
9.9203	58
9.9277	53
9.9351	41
9.9425	61
9.9499	57
9.9573	62
9.9647	47
9.9721	51
9.9795	46
9.9869	54
9.9943	51
10.0017	67
10.0091	46
10.0165	65
10.0239	52
10.0313	58
10.0386	54
10.0460	46
10.0534	56
10.0608	72
10.0682	78
10.0756	57
10.0830	53
10.0904	53
10.0978	62
10.1052	48
10.1126	53
10.1200	43
10.1274	54
10.1348	44
10.1422	63
10.1496	71
10.1570	53
10.1644	49
10.1718	54
10.1792	66
10.1866	57
10.1939	44
10.2013	61
10.2087	65
10.2161	60
10.2235	46
10.2309	66
10.2383	64
10.2457	58
10.2531	48
10.2605	48
10.2679	70
10.2753	38
10.2827	61
10.2901	60
10.2975	56
10.3049	58
10.3123	50
10.3197	53
10.3271	54
10.3345	50
10.3419	49
10.3492	66
10.3566	38
10.3640	63
10.3714	59
10.3788	60
10.3862	52
10.3936	50
10.4010	49
10.4084	49
10.4158	43
10.4232	56
10.4306	51
10.4380	46
10.4454	56
10.4528	58
10.4602	49
10.4676	54
10.4750	55
10.4824	61
10.4898	48
10.4972	56
10.5045	53
10.5119	55
10.5193	61
10.5267	59
10.5341	39
10.5415	51
10.5489	59
10.5563	42
10.5637	51
10.5711	52
10.5785	58
10.5859	62
10.5933	62
10.6007	39
10.6081	46
10.6155	59
10.6229	47
10.6303	46
10.6377	46
10.6451	62
10.6525	57
10.6598	58
10.6672	50
10.6746	47
10.6820	55
10.6894	53
10.6968	55
10.7042	57
10.7116	56
10.7190	52
10.7264	58
10.7338	55
10.7412	54
10.7486	57
10.7560	48
10.7634	59
10.7708	55
10.7782	54
10.7856	49
10.7930	61
10.8004	48
10.8078	64
10.8151	64
10.8225	36
10.8299	60
10.8373	65
10.8447	54
10.8521	58
10.8595	58
10.8669	46
10.8743	59
10.8817	55
10.8891	49
10.8965	48
10.9039	33
10.9113	46
10.9187	48
10.9261	53
10.9335	30
10.9409	49
10.9483	51
10.9557	46
10.9631	38
10.9705	50
10.9778	50
10.9852	49
10.9926	53
11.0000	46
11.0074	63
11.0148	52
11.0222	47
11.0296	41
11.0370	49
11.0444	55
11.0518	53
11.0592	59
11.0666	54
11.0740	50
11.0814	56
11.0888	56
11.0962	43
11.1036	50
11.1110	59
11.1184	64
11.1258	50
11.1331	53
11.1405	52
11.1479	65
11.1553	59
11.1627	43
11.1701	60
11.1775	56
11.1849	48
11.1923	45
11.1997	56
11.2071	57
11.2145	41
11.2219	63
11.2293	58
11.2367	49
11.2441	56
11.2515	54
11.2589	50
11.2663	55
11.2737	55
11.2811	54
11.2884	54
11.2958	52
11.3032	45
11.3106	48
11.3180	45
11.3254	65
11.3328	57
11.3402	70
11.3476	52
11.3550	69
11.3624	48
11.3698	63
11.3772	55
11.3846	62
11.3920	49
11.3994	70
11.4068	68
11.4142	62
11.4216	66
11.4290	56
11.4364	55
11.4437	76
11.4511	66
11.4585	64
11.4659	63
11.4733	61
11.4807	52
11.4881	45
11.4955	62
11.5029	62
11.5103	62
11.5177	62
11.5251	75
11.5325	77
11.5399	65
11.5473	100
11.5547	96
11.5621	91
11.5695	106
11.5769	114
11.5843	118
11.5917	112
11.5990	127
11.6064	136
11.6138	166
11.6212	182
11.6286	212
11.6360	220
11.6434	248
11.6508	334
11.6582	403
11.6656	453
11.6730	544
11.6804	655
11.6878	754
11.6952	879
11.7026	954
11.7100	986
11.7174	1058
11.7248	1011
11.7322	915
11.7396	855
11.7470	746
11.7543	648
11.7617	555
11.7691	438
11.7765	360
11.7839	290
11.7913	225
11.7987	171
11.8061	124
11.8135	122
11.8209	94
11.8283	84
11.8357	88
11.8431	88
11.8505	96
11.8579	100
11.8653	85
11.8727	93
11.8801	72
11.8875	79
11.8949	78
11.9023	90
11.9096	68
11.9170	91
11.9244	89
11.9318	100
11.9392	102
11.9466	104
11.9540	151
11.9614	117
11.9688	146
11.9762	168
11.9836	193
11.9910	234
11.9984	210
12.0058	232
12.0132	277
12.0206	271
12.0280	245
12.0354	219
12.0428	240
12.0502	188
12.0576	175
12.0649	134
12.0723	121
12.0797	122
12.0871	110
12.0945	121
12.1019	105
12.1093	98
12.1167	79
12.1241	120
12.1315	121
12.1389	126
12.1463	99
12.1537	113
12.1611	140
12.1685	131
12.1759	140
12.1833	135
12.1907	154
12.1981	169
12.2055	184
12.2129	211
12.2202	241
12.2276	268
12.2350	344
12.2424	386
12.2498	418
12.2572	438
12.2646	527
12.2720	566
12.2794	573
12.2868	597
12.2942	726
12.3016	767
12.3090	791
12.3164	901
12.3238	1060
12.3312	1213
12.3386	1360
12.3460	1411
12.3534	1431
12.3608	1427
12.3682	1413
12.3755	1307
12.3829	1128
12.3903	1000
12.3977	869
12.4051	764
12.4125	614
12.4199	506
12.4273	481
12.4347	394
12.4421	407
12.4495	343
12.4569	326
12.4643	281
12.4717	312
12.4791	251
12.4865	239
12.4939	207
12.5013	193
12.5087	157
12.5161	163
12.5235	136
12.5309	131
12.5382	120
12.5456	91
12.5530	101
12.5604	113
12.5678	80
12.5752	98
12.5826	87
12.5900	81
12.5974	88
12.6048	80
12.6122	66
12.6196	66
12.6270	74
12.6344	76
12.6418	69
12.6492	75
12.6566	56
12.6640	58
12.6714	65
12.6788	64
12.6862	53
12.6935	88
12.7009	69
12.7083	82
12.7157	61
12.7231	74
12.7305	69
12.7379	72
12.7453	71
12.7527	69
12.7601	53
12.7675	69
12.7749	75
12.7823	85
12.7897	72
12.7971	74
12.8045	83
12.8119	81
12.8193	70
12.8267	72
12.8341	85
12.8415	62
12.8488	76
12.8562	77
12.8636	60
12.8710	82
12.8784	79
12.8858	78
12.8932	76
12.9006	70
12.9080	83
12.9154	82
12.9228	67
12.9302	56
12.9376	93
12.9450	69
12.9524	74
12.9598	74
12.9672	72
12.9746	55
12.9820	79
12.9894	71
12.9968	75
13.0041	78
13.0115	89
13.0189	88
13.0263	73
13.0337	92
13.0411	74
13.0485	82
13.0559	71
13.0633	84
13.0707	69
13.0781	67
13.0855	102
13.0929	100
13.1003	88
13.1077	134
13.1151	117
13.1225	141
13.1299	135
13.1373	158
13.1447	175
13.1521	194
13.1594	255
13.1668	257
13.1742	322
13.1816	382
13.1890	431
13.1964	531
13.2038	670
13.2112	772
13.2186	870
13.2260	1013
13.2334	973
13.2408	1077
13.2482	1040
13.2556	1001
13.2630	906
13.2704	785
13.2778	668
13.2852	552
13.2926	515
13.3000	418
13.3074	328
13.3147	259
13.3221	202
13.3295	180
13.3369	169
13.3443	142
13.3517	133
13.3591	110
13.3665	121
13.3739	111
13.3813	115
13.3887	110
13.3961	95
13.4035	99
13.4109	91
13.4183	103
13.4257	103
13.4331	87
13.4405	98
13.4479	90
13.4553	90
13.4627	90
13.4700	99
13.4774	106
13.4848	95
13.4922	104
13.4996	100
13.5070	115
13.5144	137
13.5218	146
13.5292	141
13.5366	145
13.5440	172
13.5514	179
13.5588	207
13.5662	209
13.5736	290
13.5810	277
13.5884	341
13.5958	401
13.6032	459
13.6106	563
13.6180	724
13.6253	764
13.6327	981
13.6401	1222
13.6475	1452
13.6549	1480
13.6623	1635
13.6697	1613
13.6771	1629
13.6845	1550
13.6919	1453
13.6993	1333
13.7067	1184
13.7141	997
13.7215	881
13.7289	711
13.7363	580
13.7437	494
13.7511	359
13.7585	292
13.7659	242
13.7733	200
13.7806	185
13.7880	154
13.7954	159
13.8028	133
13.8102	130
13.8176	116
13.8250	121
13.8324	110
13.8398	113
13.8472	105
13.8546	89
13.8620	79
13.8694	80
13.8768	75
13.8842	79
13.8916	76
13.8990	107
13.9064	58
13.9138	87
13.9212	85
13.9286	78
13.9359	85
13.9433	74
13.9507	58
13.9581	76
13.9655	70
13.9729	75
13.9803	78
13.9877	62
13.9951	70
14.0025	64
14.0099	72
14.0173	77
14.0247	87
14.0321	85
14.0395	84
14.0469	70
14.0543	82
14.0617	77
14.0691	52
14.0765	69
14.0839	69
14.0913	82
14.0986	67
14.1060	56
14.1134	59
14.1208	69
14.1282	68
14.1356	68
14.1430	70
14.1504	73
14.1578	71
14.1652	54
14.1726	61
14.1800	52
14.1874	59
14.1948	86
14.2022	74
14.2096	64
14.2170	62
14.2244	65
14.2318	67
14.2392	54
14.2466	71
14.2539	78
14.2613	76
14.2687	60
14.2761	83
14.2835	74
14.2909	64
14.2983	67
14.3057	83
14.3131	75
14.3205	83
14.3279	94
14.3353	87
14.3427	105
14.3501	86
14.3575	95
14.3649	115
14.3723	144
14.3797	134
14.3871	151
14.3945	146
14.4019	164
14.4092	158
14.4166	144
14.4240	129
14.4314	130
14.4388	127
14.4462	111
14.4536	112
14.4610	69
14.4684	105
14.4758	71
14.4832	75
14.4906	77
14.4980	60
14.5054	83
14.5128	74
14.5202	62
14.5276	66
14.5350	54
14.5424	67
14.5498	68
14.5572	61
14.5645	74
14.5719	72
14.5793	63
14.5867	81
14.5941	73
14.6015	74
14.6089	64
14.6163	85
14.6237	66
14.6311	74
14.6385	67
14.6459	82
14.6533	69
14.6607	92
14.6681	87
14.6755	102
14.6829	94
14.6903	105
14.6977	118
14.7051	120
14.7125	130
14.7198	166
14.7272	187
14.7346	189
14.7420	211
14.7494	218
14.7568	238
14.7642	260
14.7716	293
14.7790	289
14.7864	255
14.7938	272
14.8012	252
14.8086	254
14.8160	231
14.8234	232
14.8308	191
14.8382	162
14.8456	141
14.8530	144
14.8604	135
14.8678	105
14.8751	122
14.8825	99
14.8899	81
14.8973	84
14.9047	91
14.9121	103
14.9195	75
14.9269	76
14.9343	71
14.9417	87
14.9491	80
14.9565	71
14.9639	66
14.9713	77
14.9787	79
14.9861	64
14.9935	64
15.0009	82
15.0083	80
15.0157	76
15.0231	64
15.0304	72
15.0378	81
15.0452	64
15.0526	65
15.0600	95
15.0674	75
15.0748	61
15.0822	85
15.0896	94
15.0970	88
15.1044	96
15.1118	94
15.1192	89
15.1266	94
15.1340	112
15.1414	127
15.1488	138
15.1562	157
15.1636	144
15.1710	179
15.1784	181
15.1857	234
15.1931	268
15.2005	273
15.2079	273
15.2153	356
15.2227	347
15.2301	361
15.2375	342
15.2449	319
15.2523	328
15.2597	298
15.2671	297
15.2745	306
15.2819	259
15.2893	246
15.2967	213
15.3041	191
15.3115	158
15.3189	133
15.3263	110
15.3337	117
15.3410	108
15.3484	72
15.3558	96
15.3632	92
15.3706	70
15.3780	82
15.3854	76
15.3928	76
15.4002	70
15.4076	78
15.4150	59
15.4224	69
15.4298	64
15.4372	62
15.4446	57
15.4520	70
15.4594	71
15.4668	65
15.4742	72
15.4816	63
15.4890	65
15.4963	73
15.5037	74
15.5111	95
15.5185	74
15.5259	87
15.5333	105
15.5407	79
15.5481	85
15.5555	78
15.5629	82
15.5703	74
15.5777	85
15.5851	80
15.5925	83
15.5999	64
15.6073	83
15.6147	73
15.6221	79
15.6295	60
15.6369	60
15.6443	91
15.6516	76
15.6590	59
15.6664	54
15.6738	69
15.6812	66
15.6886	69
15.6960	64
15.7034	65
15.7108	56
15.7182	69
15.7256	49
15.7330	62
15.7404	48
15.7478	50
15.7552	64
15.7626	50
15.7700	66
15.7774	62
15.7848	60
15.7922	61
15.7996	55
15.8070	64
15.8143	56
15.8217	58
15.8291	66
15.8365	66
15.8439	44
15.8513	57
15.8587	61
15.8661	48
15.8735	54
15.8809	42
15.8883	48
15.8957	59
15.9031	60
15.9105	50
15.9179	41
15.9253	50
15.9327	57
15.9401	58
15.9475	53
15.9549	62
15.9623	54
15.9696	71
15.9770	69
15.9844	59
15.9918	64
15.9992	54
16.0066	56
16.0140	52
16.0214	72
16.0288	75
16.0362	52
16.0436	61
16.0510	60
16.0584	59
16.0658	58
16.0732	54
16.0806	59
16.0880	56
16.0954	45
16.1028	57
16.1102	60
16.1176	45
16.1249	64
16.1323	61
16.1397	68
16.1471	59
16.1545	49
16.1619	50
16.1693	62
16.1767	49
16.1841	61
16.1915	59
16.1989	53
16.2063	65
16.2137	52
16.2211	51
16.2285	50
16.2359	52
16.2433	59
16.2507	57
16.2581	60
16.2655	50
16.2729	66
16.2802	56
16.2876	65
16.2950	57
16.3024	62
16.3098	52
16.3172	63
16.3246	53
16.3320	52
16.3394	65
16.3468	47
16.3542	59
16.3616	55
16.3690	72
16.3764	66
16.3838	58
16.3912	49
16.3986	70
16.4060	68
16.4134	61
16.4208	62
16.4282	77
16.4355	61
16.4429	72
16.4503	69
16.4577	67
16.4651	57
16.4725	69
16.4799	86
16.4873	60
16.4947	75
16.5021	68
16.5095	52
16.5169	64
16.5243	72
16.5317	70
16.5391	84
16.5465	76
16.5539	74
16.5613	70
16.5687	88
16.5761	72
16.5835	93
16.5908	77
16.5982	68
16.6056	87
16.6130	101
16.6204	79
16.6278	70
16.6352	77
16.6426	94
16.6500	107
16.6574	102
16.6648	86
16.6722	105
16.6796	103
16.6870	116
16.6944	130
16.7018	129
16.7092	144
16.7166	138
16.7240	149
16.7314	186
16.7388	169
16.7461	198
16.7535	205
16.7609	234
16.7683	294
16.7757	289
16.7831	292
16.7905	336
16.7979	370
16.8053	416
16.8127	418
16.8201	423
16.8275	468
16.8349	420
16.8423	392
16.8497	362
16.8571	349
16.8645	331
16.8719	316
16.8793	274
16.8867	261
16.8941	241
16.9014	248
16.9088	219
16.9162	212
16.9236	213
16.9310	199
16.9384	228
16.9458	238
16.9532	244
16.9606	321
16.9680	365
16.9754	404
16.9828	489
16.9902	573
16.9976	671
17.0050	804
17.0124	787
17.0198	871
17.0272	911
17.0346	899
17.0420	840
17.0494	809
17.0567	713
17.0641	636
17.0715	559
17.0789	546
17.0863	442
17.0937	367
17.1011	308
17.1085	228
17.1159	201
17.1233	194
17.1307	142
17.1381	159
17.1455	129
17.1529	122
17.1603	128
17.1677	106
17.1751	94
17.1825	115
17.1899	85
17.1973	92
17.2047	83
17.2120	73
17.2194	97
17.2268	77
17.2342	71
17.2416	89
17.2490	79
17.2564	98
17.2638	84
17.2712	92
17.2786	73
17.2860	80
17.2934	74
17.3008	93
17.3082	71
17.3156	65
17.3230	79
17.3304	75
17.3378	68
17.3452	99
17.3526	52
17.3600	78
17.3674	86
17.3747	78
17.3821	87
17.3895	84
17.3969	80
17.4043	76
17.4117	73
17.4191	88
17.4265	100
17.4339	76
17.4413	91
17.4487	89
17.4561	74
17.4635	91
17.4709	91
17.4783	94
17.4857	99
17.4931	91
17.5005	99
17.5079	97
17.5153	110
17.5227	103
17.5300	120
17.5374	106
17.5448	121
17.5522	150
17.5596	117
17.5670	154
17.5744	180
17.5818	171
17.5892	154
17.5966	182
17.6040	173
17.6114	194
17.6188	195
17.6262	189
17.6336	186
17.6410	201
17.6484	177
17.6558	176
17.6632	174
17.6706	188
17.6780	166
17.6853	178
17.6927	186
17.7001	176
17.7075	173
17.7149	163
17.7223	195
17.7297	207
17.7371	200
17.7445	232
17.7519	232
17.7593	290
17.7667	289
17.7741	307
17.7815	361
17.7889	416
17.7963	422
17.8037	486
17.8111	463
17.8185	522
17.8259	496
17.8333	559
17.8406	560
17.8480	582
17.8554	560
17.8628	447
17.8702	465
17.8776	450
17.8850	395
17.8924	362
17.8998	320
17.9072	295
17.9146	247
17.9220	232
17.9294	217
17.9368	183
17.9442	180
17.9516	176
17.9590	157
17.9664	124
17.9738	140
17.9812	145
17.9886	157
17.9959	134
18.0033	131
18.0107	118
18.0181	140
18.0255	121
18.0329	127
18.0403	123
18.0477	114
18.0551	129
18.0625	114
18.0699	97
18.0773	118
18.0847	122
18.0921	114
18.0995	73
18.1069	87
18.1143	87
18.1217	93
18.1291	97
18.1365	81
18.1439	89
18.1512	91
18.1586	91
18.1660	75
18.1734	94
18.1808	90
18.1882	80
18.1956	81
18.2030	87
18.2104	80
18.2178	85
18.2252	77
18.2326	90
18.2400	82
18.2474	80
18.2548	91
18.2622	85
18.2696	93
18.2770	83
18.2844	86
18.2918	84
18.2992	88
18.3065	86
18.3139	96
18.3213	98
18.3287	104
18.3361	102
18.3435	125
18.3509	114
18.3583	109
18.3657	110
18.3731	104
18.3805	121
18.3879	131
18.3953	134
18.4027	146
18.4101	145
18.4175	123
18.4249	131
18.4323	152
18.4397	175
18.4471	151
18.4545	194
18.4618	208
18.4692	214
18.4766	260
18.4840	278
18.4914	290
18.4988	336
18.5062	388
18.5136	560
18.5210	565
18.5284	612
18.5358	713
18.5432	786
18.5506	804
18.5580	834
18.5654	880
18.5728	796
18.5802	891
18.5876	875
18.5950	849
18.6024	811
18.6098	813
18.6171	779
18.6245	815
18.6319	737
18.6393	664
18.6467	591
18.6541	586
18.6615	545
18.6689	479
18.6763	446
18.6837	382
18.6911	364
18.6985	256
18.7059	297
18.7133	268
18.7207	219
18.7281	207
18.7355	164
18.7429	170
18.7503	163
18.7577	156
18.7651	150
18.7724	152
18.7798	184
18.7872	169
18.7946	184
18.8020	175
18.8094	175
18.8168	194
18.8242	183
18.8316	214
18.8390	237
18.8464	276
18.8538	267
18.8612	331
18.8686	337
18.8760	375
18.8834	428
18.8908	461
18.8982	539
18.9056	650
18.9130	787
18.9204	770
18.9278	882
18.9351	994
18.9425	925
18.9499	958
18.9573	937
18.9647	895
18.9721	888
18.9795	747
18.9869	710
18.9943	629
19.0017	538
19.0091	462
19.0165	451
19.0239	415
19.0313	346
19.0387	259
19.0461	265
19.0535	226
19.0609	236
19.0683	193
19.0757	190
19.0831	175
19.0904	178
19.0978	138
19.1052	146
19.1126	129
19.1200	121
19.1274	118
19.1348	122
19.1422	104
19.1496	126
19.1570	145
19.1644	107
19.1718	111
19.1792	109
19.1866	108
19.1940	91
19.2014	80
19.2088	95
19.2162	101
19.2236	97
19.2310	106
19.2384	112
19.2457	99
19.2531	92
19.2605	104
19.2679	89
19.2753	99
19.2827	99
19.2901	87
19.2975	111
19.3049	88
19.3123	91
19.3197	113
19.3271	121
19.3345	97
19.3419	112
19.3493	101
19.3567	120
19.3641	114
19.3715	159
19.3789	133
19.3863	143
19.3937	159
19.4010	205
19.4084	219
19.4158	211
19.4232	252
19.4306	320
19.4380	283
19.4454	350
19.4528	330
19.4602	342
19.4676	367
19.4750	365
19.4824	373
19.4898	372
19.4972	385
19.5046	431
19.5120	354
19.5194	414
19.5268	412
19.5342	446
19.5416	377
19.5490	402
19.5563	385
19.5637	416
19.5711	349
19.5785	351
19.5859	334
19.5933	286
19.6007	294
19.6081	243
19.6155	247
19.6229	196
19.6303	192
19.6377	182
19.6451	181
19.6525	160
19.6599	115
19.6673	139
19.6747	111
19.6821	103
19.6895	111
19.6969	99
19.7043	120
19.7116	93
19.7190	79
19.7264	88
19.7338	85
19.7412	97
19.7486	91
19.7560	96
19.7634	100
19.7708	97
19.7782	87
19.7856	105
19.7930	102
19.8004	97
19.8078	93
19.8152	100
19.8226	100
19.8300	112
19.8374	90
19.8448	120
19.8522	88
19.8596	87
19.8669	100
19.8743	97
19.8817	98
19.8891	93
19.8965	97
19.9039	92
19.9113	92
19.9187	94
19.9261	74
19.9335	98
19.9409	72
19.9483	88
19.9557	82
19.9631	89
19.9705	101
19.9779	101
19.9853	84
19.9927	85
20.0001	94
20.0075	92
20.0149	79
20.0222	71
20.0296	101
20.0370	85
20.0444	87
20.0518	87
20.0592	87
20.0666	85
20.0740	75
20.0814	77
20.0888	83
20.0962	83
20.1036	81
20.1110	86
20.1184	81
20.1258	115
20.1332	91
20.1406	90
20.1480	101
20.1554	94
20.1628	97
20.1702	80
20.1775	85
20.1849	97
20.1923	104
20.1997	105
20.2071	91
20.2145	89
20.2219	108
20.2293	126
20.2367	107
20.2441	112
20.2515	122
20.2589	121
20.2663	130
20.2737	152
20.2811	144
20.2885	142
20.2959	156
20.3033	138
20.3107	135
20.3181	161
20.3255	151
20.3328	140
20.3402	150
20.3476	159
20.3550	147
20.3624	163
20.3698	167
20.3772	149
20.3846	163
20.3920	150
20.3994	201
20.4068	194
20.4142	225
20.4216	219
20.4290	229
20.4364	270
20.4438	286
20.4512	334
20.4586	410
20.4660	426
20.4734	504
20.4808	541
20.4882	600
20.4955	687
20.5029	724
20.5103	821
20.5177	733
20.5251	744
20.5325	736
20.5399	778
20.5473	772
20.5547	663
20.5621	686
20.5695	627
20.5769	597
20.5843	508
20.5917	497
20.5991	453
20.6065	407
20.6139	328
20.6213	343
20.6287	285
20.6361	262
20.6435	223
20.6508	242
20.6582	230
20.6656	178
20.6730	209
20.6804	193
20.6878	189
20.6952	189
20.7026	199
20.7100	195
20.7174	181
20.7248	194
20.7322	208
20.7396	180
20.7470	220
20.7544	190
20.7618	233
20.7692	206
20.7766	221
20.7840	187
20.7914	191
20.7988	255
20.8061	232
20.8135	224
20.8209	206
20.8283	250
20.8357	231
20.8431	258
20.8505	275
20.8579	292
20.8653	315
20.8727	301
20.8801	326
20.8875	370
20.8949	401
20.9023	453
20.9097	475
20.9171	545
20.9245	570
20.9319	580
20.9393	654
20.9467	669
20.9541	663
20.9614	700
20.9688	672
20.9762	706
20.9836	653
20.9910	622
20.9984	619
21.0058	615
21.0132	522
21.0206	507
21.0280	462
21.0354	439
21.0428	386
21.0502	393
21.0576	328
21.0650	318
21.0724	299
21.0798	292
21.0872	264
21.0946	222
21.1020	209
21.1094	192
21.1167	185
21.1241	170
21.1315	186
21.1389	170
21.1463	182
21.1537	186
21.1611	171
21.1685	158
21.1759	154
21.1833	139
21.1907	168
21.1981	144
21.2055	164
21.2129	156
21.2203	161
21.2277	153
21.2351	151
21.2425	149
21.2499	154
21.2573	171
21.2647	157
21.2720	145
21.2794	146
21.2868	168
21.2942	171
21.3016	149
21.3090	160
21.3164	153
21.3238	155
21.3312	167
21.3386	158
21.3460	198
21.3534	150
21.3608	180
21.3682	175
21.3756	177
21.3830	213
21.3904	200
21.3978	214
21.4052	239
21.4126	227
21.4200	255
21.4273	301
21.4347	324
21.4421	334
21.4495	393
21.4569	498
21.4643	584
21.4717	678
21.4791	801
21.4865	858
21.4939	891
21.5013	960
21.5087	963
21.5161	932
21.5235	961
21.5309	934
21.5383	932
21.5457	894
21.5531	784
21.5605	756
21.5679	707
21.5753	628
21.5826	552
21.5900	535
21.5974	491
21.6048	452
21.6122	420
21.6196	428
21.6270	367
21.6344	399
21.6418	358
21.6492	360
21.6566	361
21.6640	351
21.6714	344
21.6788	354
21.6862	400
21.6936	455
21.7010	393
21.7084	393
21.7158	388
21.7232	405
21.7306	419
21.7379	420
21.7453	392
21.7527	403
21.7601	430
21.7675	402
21.7749	348
21.7823	408
21.7897	399
21.7971	396
21.8045	427
21.8119	398
21.8193	435
21.8267	459
21.8341	467
21.8415	521
21.8489	552
21.8563	627
21.8637	715
21.8711	803
21.8785	961
21.8859	1147
21.8932	1388
21.9006	1744
21.9080	2177
21.9154	2616
21.9228	3197
21.9302	3770
21.9376	4175
21.9450	4554
21.9524	4817
21.9598	4753
21.9672	4747
21.9746	4577
21.9820	4386
21.9894	4099
21.9968	3844
22.0042	3534
22.0116	3255
22.0190	2897
22.0264	2547
22.0338	2197
22.0412	1855
22.0485	1441
22.0559	1224
22.0633	1028
22.0707	780
22.0781	700
22.0855	569
22.0929	512
22.1003	424
22.1077	400
22.1151	370
22.1225	322
22.1299	291
22.1373	266
22.1447	260
22.1521	272
22.1595	228
22.1669	226
22.1743	199
22.1817	221
22.1891	209
22.1965	215
22.2039	192
22.2112	175
22.2186	185
22.2260	179
22.2334	166
22.2408	178
22.2482	161
22.2556	164
22.2630	180
22.2704	175
22.2778	150
22.2852	135
22.2926	163
22.3000	160
22.3074	158
22.3148	144
22.3222	133
22.3296	128
22.3370	137
22.3444	144
22.3518	117
22.3592	121
22.3665	144
22.3739	148
22.3813	144
22.3887	138
22.3961	139
22.4035	135
22.4109	128
22.4183	110
22.4257	127
22.4331	131
22.4405	132
22.4479	143
22.4553	129
22.4627	126
22.4701	136
22.4775	112
22.4849	138
22.4923	107
22.4997	125
22.5071	120
22.5145	103
22.5218	122
22.5292	119
22.5366	121
22.5440	138
22.5514	116
22.5588	151
22.5662	123
22.5736	123
22.5810	124
22.5884	117
22.5958	124
22.6032	140
22.6106	130
22.6180	134
22.6254	129
22.6328	156
22.6402	144
22.6476	133
22.6550	164
22.6624	150
22.6698	172
22.6771	162
22.6845	180
22.6919	181
22.6993	214
22.7067	271
22.7141	276
22.7215	300
22.7289	369
22.7363	326
22.7437	367
22.7511	377
22.7585	401
22.7659	350
22.7733	371
22.7807	330
22.7881	333
22.7955	322
22.8029	286
22.8103	284
22.8177	269
22.8251	229
22.8324	240
22.8398	186
22.8472	194
22.8546	178
22.8620	167
22.8694	168
22.8768	154
22.8842	160
22.8916	127
22.8990	160
22.9064	132
22.9138	124
22.9212	141
22.9286	124
22.9360	105
22.9434	128
22.9508	129
22.9582	115
22.9656	127
22.9730	123
22.9804	125
22.9877	138
22.9951	111
23.0025	122
23.0099	95
23.0173	115
23.0247	117
23.0321	107
23.0395	94
23.0469	116
23.0543	101
23.0617	111
23.0691	116
23.0765	102
23.0839	108
23.0913	124
23.0987	107
23.1061	105
23.1135	96
23.1209	117
23.1283	110
23.1357	113
23.1430	103
23.1504	118
23.1578	112
23.1652	119
23.1726	100
23.1800	102
23.1874	113
23.1948	97
23.2022	96
23.2096	120
23.2170	99
23.2244	110
23.2318	113
23.2392	122
23.2466	121
23.2540	112
23.2614	105
23.2688	105
23.2762	110
23.2836	121
23.2910	112
23.2983	111
23.3057	124
23.3131	119
23.3205	118
23.3279	125
23.3353	118
23.3427	131
23.3501	116
23.3575	144
23.3649	144
23.3723	124
23.3797	152
23.3871	147
23.3945	151
23.4019	128
23.4093	193
23.4167	186
23.4241	225
23.4315	207
23.4389	287
23.4463	285
23.4536	382
23.4610	367
23.4684	412
23.4758	445
23.4832	381
23.4906	446
23.4980	406
23.5054	389
23.5128	399
23.5202	335
23.5276	336
23.5350	320
23.5424	300
23.5498	277
23.5572	235
23.5646	239
23.5720	224
23.5794	180
23.5868	189
23.5942	160
23.6016	135
23.6089	158
23.6163	126
23.6237	130
23.6311	158
23.6385	144
23.6459	136
23.6533	122
23.6607	130
23.6681	152
23.6755	103
23.6829	114
23.6903	135
23.6977	134
23.7051	116
23.7125	127
23.7199	133
23.7273	133
23.7347	143
23.7421	131
23.7495	134
23.7569	122
23.7643	123
23.7716	131
23.7790	146
23.7864	118
23.7938	151
23.8012	137
23.8086	132
23.8160	135
23.8234	131
23.8308	152
23.8382	155
23.8456	154
23.8530	176
23.8604	185
23.8678	197
23.8752	210
23.8826	243
23.8900	226
23.8974	253
23.9048	287
23.9122	307
23.9196	288
23.9269	384
23.9343	401
23.9417	448
23.9491	535
23.9565	585
23.9639	579
23.9713	711
23.9787	671
23.9861	663
23.9935	688
24.0009	742
24.0083	672
24.0157	667
24.0231	682
24.0305	694
24.0379	678
24.0453	670
24.0527	672
24.0601	587
24.0675	612
24.0749	526
24.0822	514
24.0896	521
24.0970	478
24.1044	425
24.1118	423
24.1192	357
24.1266	338
24.1340	309
24.1414	314
24.1488	275
24.1562	233
24.1636	252
24.1710	226
24.1784	228
24.1858	230
24.1932	198
24.2006	204
24.2080	184
24.2154	201
24.2228	179
24.2302	195
24.2375	217
24.2449	232
24.2523	224
24.2597	266
24.2671	249
24.2745	293
24.2819	297
24.2893	321
24.2967	314
24.3041	303
24.3115	330
24.3189	308
24.3263	372
24.3337	398
24.3411	410
24.3485	448
24.3559	475
24.3633	492
24.3707	526
24.3781	584
24.3855	556
24.3928	486
24.4002	475
24.4076	521
24.4150	423
24.4224	457
24.4298	461
24.4372	429
24.4446	390
24.4520	375
24.4594	367
24.4668	339
24.4742	310
24.4816	286
24.4890	277
24.4964	243
24.5038	217
24.5112	228
24.5186	224
24.5260	215
24.5334	216
24.5408	183
24.5481	212
24.5555	199
24.5629	209
24.5703	204
24.5777	213
24.5851	196
24.5925	212
24.5999	233
24.6073	224
24.6147	206
24.6221	241
24.6295	226
24.6369	203
24.6443	219
24.6517	251
24.6591	254
24.6665	199
24.6739	216
24.6813	225
24.6887	230
24.6961	236
24.7034	267
24.7108	266
24.7182	273
24.7256	279
24.7330	295
24.7404	291
24.7478	323
24.7552	340
24.7626	353
24.7700	352
24.7774	399
24.7848	441
24.7922	407
24.7996	412
24.8070	435
24.8144	383
24.8218	372
24.8292	391
24.8366	401
24.8440	364
24.8514	372
24.8587	353
24.8661	383
24.8735	361
24.8809	385
24.8883	345
24.8957	376
24.9031	398
24.9105	371
24.9179	414
24.9253	388
24.9327	484
24.9401	459
24.9475	514
24.9549	503
24.9623	604
24.9697	622
24.9771	677
24.9845	748
24.9919	759
24.9993	800
25.0067	799
25.0140	790
25.0214	768
25.0288	705
25.0362	645
25.0436	715
25.0510	616
25.0584	610
25.0658	561
25.0732	520
25.0806	481
25.0880	440
25.0954	396
25.1028	372
25.1102	346
25.1176	311
25.1250	251
25.1324	270
25.1398	231
25.1472	221
25.1546	206
25.1620	196
25.1693	171
25.1767	190
25.1841	167
25.1915	160
25.1989	177
25.2063	175
25.2137	162
25.2211	165
25.2285	163
25.2359	156
25.2433	131
25.2507	179
25.2581	156
25.2655	141
25.2729	140
25.2803	170
25.2877	176
25.2951	154
25.3025	175
25.3099	161
25.3173	164
25.3247	174
25.3320	176
25.3394	173
25.3468	192
25.3542	203
25.3616	206
25.3690	210
25.3764	185
25.3838	244
25.3912	278
25.3986	288
25.4060	320
25.4134	394
25.4208	433
25.4282	497
25.4356	546
25.4430	645
25.4504	743
25.4578	763
25.4652	797
25.4726	824
25.4800	859
25.4873	848
25.4947	818
25.5021	861
25.5095	775
25.5169	731
25.5243	788
25.5317	726
25.5391	668
25.5465	698
25.5539	630
25.5613	634
25.5687	643
25.5761	625
25.5835	651
25.5909	638
25.5983	645
25.6057	656
25.6131	635
25.6205	655
25.6279	594
25.6353	631
25.6426	591
25.6500	529
25.6574	506
25.6648	502
25.6722	496
25.6796	426
25.6870	401
25.6944	388
25.7018	319
25.7092	335
25.7166	310
25.7240	288
25.7314	245
25.7388	273
25.7462	251
25.7536	258
25.7610	248
25.7684	198
25.7758	243
25.7832	222
25.7906	234
25.7979	283
25.8053	247
25.8127	263
25.8201	265
25.8275	297
25.8349	275
25.8423	310
25.8497	287
25.8571	289
25.8645	304
25.8719	300
25.8793	276
25.8867	305
25.8941	275
25.9015	256
25.9089	229
25.9163	255
25.9237	254
25.9311	209
25.9385	223
25.9459	201
25.9532	221
25.9606	233
25.9680	194
25.9754	224
25.9828	178
25.9902	179
25.9976	189
26.0050	172
26.0124	171
26.0198	154
26.0272	148
26.0346	177
26.0420	149
26.0494	166
26.0568	178
26.0642	162
26.0716	158
26.0790	162
26.0864	174
26.0938	151
26.1012	130
26.1085	147
26.1159	141
26.1233	150
26.1307	154
26.1381	137
26.1455	143
26.1529	161
26.1603	167
26.1677	173
26.1751	151
26.1825	147
26.1899	164
26.1973	164
26.2047	187
26.2121	172
26.2195	182
26.2269	159
26.2343	151
26.2417	161
26.2491	196
26.2565	188
26.2638	200
26.2712	185
26.2786	184
26.2860	194
26.2934	228
26.3008	186
26.3082	193
26.3156	211
26.3230	218
26.3304	237
26.3378	240
26.3452	277
26.3526	269
26.3600	286
26.3674	305
26.3748	314
26.3822	303
26.3896	360
26.3970	404
26.4044	392
26.4118	491
26.4191	492
26.4265	545
26.4339	636
26.4413	714
26.4487	796
26.4561	851
26.4635	1032
26.4709	1128
26.4783	1254
26.4857	1389
26.4931	1454
26.5005	1649
26.5079	1724
26.5153	1805
26.5227	1869
26.5301	1832
26.5375	1842
26.5449	1809
26.5523	1796
26.5597	1723
26.5671	1702
26.5744	1622
26.5818	1540
26.5892	1441
26.5966	1315
26.6040	1214
26.6114	1139
26.6188	1038
26.6262	953
26.6336	866
26.6410	763
26.6484	683
26.6558	652
26.6632	601
26.6706	494
26.6780	463
26.6854	393
26.6928	393
26.7002	363
26.7076	327
26.7150	364
26.7224	312
26.7297	325
26.7371	253
26.7445	250
26.7519	256
26.7593	258
26.7667	252
26.7741	209
26.7815	215
26.7889	217
26.7963	162
26.8037	192
26.8111	175
26.8185	208
26.8259	178
26.8333	179
26.8407	181
26.8481	157
26.8555	173
26.8629	157
26.8703	162
26.8777	160
26.8850	162
26.8924	160
26.8998	159
26.9072	160
26.9146	151
26.9220	149
26.9294	135
26.9368	150
26.9442	179
26.9516	150
26.9590	159
26.9664	147
26.9738	144
26.9812	128
26.9886	135
26.9960	145
27.0034	164
27.0108	161
27.0182	172
27.0256	159
27.0330	130
27.0404	136
27.0477	158
27.0551	145
27.0625	157
27.0699	95
27.0773	144
27.0847	132
27.0921	141
27.0995	140
27.1069	147
27.1143	140
27.1217	129
27.1291	122
27.1365	160
27.1439	148
27.1513	163
27.1587	159
27.1661	152
27.1735	128
27.1809	157
27.1883	154
27.1957	143
27.2030	169
27.2104	187
27.2178	160
27.2252	175
27.2326	174
27.2400	190
27.2474	188
27.2548	204
27.2622	190
27.2696	180
27.2770	197
27.2844	210
27.2918	224
27.2992	245
27.3066	236
27.3140	243
27.3214	260
27.3288	246
27.3362	269
27.3436	270
27.3510	259
27.3583	290
27.3657	334
27.3731	334
27.3805	404
27.3879	402
27.3953	391
27.4027	476
27.4101	513
27.4175	570
27.4249	624
27.4323	751
27.4397	812
27.4471	909
27.4545	879
27.4619	928
27.4693	956
27.4767	859
27.4841	882
27.4915	809
27.4989	794
27.5063	759
27.5136	738
27.5210	708
27.5284	654
27.5358	641
27.5432	552
27.5506	542
27.5580	490
27.5654	420
27.5728	394
27.5802	353
27.5876	353
27.5950	310
27.6024	329
27.6098	301
27.6172	274
27.6246	227
27.6320	254
27.6394	225
27.6468	208
27.6542	200
27.6616	199
27.6689	223
27.6763	214
27.6837	214
27.6911	212
27.6985	198
27.7059	200
27.7133	191
27.7207	227
27.7281	212
27.7355	230
27.7429	213
27.7503	208
27.7577	223
27.7651	235
27.7725	241
27.7799	236
27.7873	248
27.7947	263
27.8021	292
27.8095	278
27.8169	259
27.8242	281
27.8316	286
27.8390	297
27.8464	295
27.8538	322
27.8612	306
27.8686	254
27.8760	290
27.8834	277
27.8908	321
27.8982	274
27.9056	273
27.9130	267
27.9204	269
27.9278	248
27.9352	250
27.9426	223
27.9500	247
27.9574	228
27.9648	240
27.9722	232
27.9795	205
27.9869	220
27.9943	198
28.0017	231
28.0091	208
28.0165	209
28.0239	205
28.0313	220
28.0387	211
28.0461	181
28.0535	189
28.0609	193
28.0683	182
28.0757	195
28.0831	169
28.0905	177
28.0979	197
28.1053	166
28.1127	171
28.1201	184
28.1275	169
28.1348	161
28.1422	189
28.1496	184
28.1570	173
28.1644	190
28.1718	185
28.1792	193
28.1866	162
28.1940	178
28.2014	182
28.2088	169
28.2162	186
28.2236	190
28.2310	169
28.2384	166
28.2458	171
28.2532	170
28.2606	178
28.2680	168
28.2754	186
28.2828	206
28.2901	201
28.2975	191
28.3049	159
28.3123	182
28.3197	197
28.3271	161
28.3345	225
28.3419	224
28.3493	212
28.3567	255
28.3641	257
28.3715	280
28.3789	288
28.3863	323
28.3937	384
28.4011	382
28.4085	460
28.4159	480
28.4233	484
28.4307	495
28.4381	508
28.4454	516
28.4528	507
28.4602	534
28.4676	499
28.4750	451
28.4824	468
28.4898	426
28.4972	421
28.5046	418
28.5120	375
28.5194	354
28.5268	344
28.5342	285
28.5416	282
28.5490	275
28.5564	261
28.5638	215
28.5712	240
28.5786	217
28.5860	203
28.5934	186
28.6008	171
28.6081	188
28.6155	163
28.6229	149
28.6303	132
28.6377	148
28.6451	144
28.6525	150
28.6599	126
28.6673	125
28.6747	108
28.6821	123
28.6895	122
28.6969	110
28.7043	139
28.7117	138
28.7191	127
28.7265	111
28.7339	122
28.7413	116
28.7487	120
28.7561	108
28.7634	120
28.7708	107
28.7782	113
28.7856	122
28.7930	103
28.8004	138
28.8078	137
28.8152	129
28.8226	152
28.8300	131
28.8374	130
28.8448	139
28.8522	113
28.8596	123
28.8670	143
28.8744	141
28.8818	145
28.8892	158
28.8966	170
28.9040	165
28.9114	154
28.9187	178
28.9261	174
28.9335	198
28.9409	192
28.9483	194
28.9557	203
28.9631	235
28.9705	256
28.9779	259
28.9853	301
28.9927	276
29.0001	321
29.0075	297
29.0149	299
29.0223	303
29.0297	343
29.0371	311
29.0445	252
29.0519	268
29.0593	254
29.0667	241
29.0740	227
29.0814	280
29.0888	227
29.0962	222
29.1036	211
29.1110	197
29.1184	188
29.1258	145
29.1332	138
29.1406	151
29.1480	138
29.1554	134
29.1628	142
29.1702	136
29.1776	122
29.1850	124
29.1924	105
29.1998	114
29.2072	103
29.2146	124
29.2220	99
29.2293	120
29.2367	117
29.2441	110
29.2515	114
29.2589	107
29.2663	113
29.2737	124
29.2811	93
29.2885	126
29.2959	115
29.3033	107
29.3107	110
29.3181	123
29.3255	123
29.3329	115
29.3403	113
29.3477	114
29.3551	112
29.3625	103
29.3699	113
29.3773	124
29.3846	129
29.3920	145
29.3994	121
29.4068	134
29.4142	134
29.4216	129
29.4290	157
29.4364	141
29.4438	135
29.4512	133
29.4586	114
29.4660	126
29.4734	134
29.4808	132
29.4882	141
29.4956	136
29.5030	123
29.5104	133
29.5178	131
29.5252	121
29.5326	143
29.5399	120
29.5473	146
29.5547	118
29.5621	128
29.5695	137
29.5769	113
29.5843	118
29.5917	140
29.5991	130
29.6065	110
29.6139	126
29.6213	126
29.6287	105
29.6361	120
29.6435	121
29.6509	116
29.6583	118
29.6657	119
29.6731	116
29.6805	115
29.6879	124
29.6952	125
29.7026	142
29.7100	132
29.7174	106
29.7248	115
29.7322	127
29.7396	155
29.7470	136
29.7544	126
29.7618	111
29.7692	151
29.7766	120
29.7840	101
29.7914	117
29.7988	128
29.8062	116
29.8136	107
29.8210	124
29.8284	126
29.8358	110
29.8432	120
29.8505	133
29.8579	113
29.8653	113
29.8727	114
29.8801	108
29.8875	102
29.8949	97
29.9023	110
29.9097	110
29.9171	115
29.9245	114
29.9319	118
29.9393	105
29.9467	118
29.9541	104
29.9615	118
29.9689	106
29.9763	131
29.9837	123
29.9911	125
29.9985	123
30.0058	125
30.0132	122
30.0206	127
30.0280	124
30.0354	142
30.0428	160
30.0502	163
30.0576	149
30.0650	154
30.0724	144
30.0798	148
30.0872	132
30.0946	159
30.1020	152
30.1094	141
30.1168	160
30.1242	132
30.1316	165
30.1390	162
30.1464	139
30.1538	138
30.1612	155
30.1685	143
30.1759	151
30.1833	146
30.1907	132
30.1981	129
30.2055	142
30.2129	140
30.2203	154
30.2277	171
30.2351	143
30.2425	145
30.2499	149
30.2573	125
30.2647	165
30.2721	143
30.2795	144
30.2869	146
30.2943	157
30.3017	133
30.3091	142
30.3165	145
30.3238	159
30.3312	153
30.3386	152
30.3460	162
30.3534	155
30.3608	144
30.3682	153
30.3756	162
30.3830	166
30.3904	164
30.3978	152
30.4052	186
30.4126	161
30.4200	174
30.4274	141
30.4348	187
30.4422	197
30.4496	160
30.4570	187
30.4644	166
30.4718	187
30.4791	176
30.4865	182
30.4939	172
30.5013	203
30.5087	175
30.5161	197
30.5235	179
30.5309	174
30.5383	164
30.5457	172
30.5531	138
30.5605	184
30.5679	161
30.5753	159
30.5827	161
30.5901	167
30.5975	140
30.6049	149
30.6123	154
30.6197	147
30.6271	171
30.6344	157
30.6418	157
30.6492	154
30.6566	130
30.6640	131
30.6714	146
30.6788	155
30.6862	140
30.6936	134
30.7010	139
30.7084	151
30.7158	137
30.7232	132
30.7306	139
30.7380	123
30.7454	117
30.7528	122
30.7602	95
30.7676	115
30.7750	121
30.7824	115
30.7897	113
30.7971	100
30.8045	118
30.8119	109
30.8193	102
30.8267	99
30.8341	98
30.8415	104
30.8489	78
30.8563	112
30.8637	101
30.8711	90
30.8785	116
30.8859	99
30.8933	118
30.9007	90
30.9081	109
30.9155	114
30.9229	110
30.9303	92
30.9377	96
30.9450	108
30.9524	105
30.9598	94
30.9672	88
30.9746	95
30.9820	100
30.9894	97
30.9968	111
31.0042	94
31.0116	91
31.0190	99
31.0264	115
31.0338	89
31.0412	91
31.0486	88
31.0560	99
31.0634	88
31.0708	103
31.0782	81
31.0856	95
31.0930	92
31.1003	97
31.1077	76
31.1151	102
31.1225	87
31.1299	78
31.1373	97
31.1447	91
31.1521	90
31.1595	98
31.1669	93
31.1743	106
31.1817	97
31.1891	83
31.1965	95
31.2039	91
31.2113	84
31.2187	115
31.2261	99
31.2335	100
31.2409	99
31.2483	102
31.2556	110
31.2630	130
31.2704	92
31.2778	103
31.2852	110
31.2926	120
31.3000	130
31.3074	109
31.3148	128
31.3222	124
31.3296	115
31.3370	108
31.3444	127
31.3518	176
31.3592	164
31.3666	194
31.3740	178
31.3814	170
31.3888	175
31.3962	190
31.4036	206
31.4109	190
31.4183	214
31.4257	207
31.4331	204
31.4405	196
31.4479	209
31.4553	183
31.4627	200
31.4701	176
31.4775	208
31.4849	179
31.4923	165
31.4997	192
31.5071	178
31.5145	181
31.5219	194
31.5293	154
31.5367	165
31.5441	171
31.5515	143
31.5589	162
31.5662	167
31.5736	160
31.5810	158
31.5884	174
31.5958	140
31.6032	154
31.6106	168
31.6180	131
31.6254	131
31.6328	137
31.6402	129
31.6476	133
31.6550	136
31.6624	124
31.6698	131
31.6772	135
31.6846	122
31.6920	125
31.6994	114
31.7068	122
31.7142	119
31.7215	96
31.7289	103
31.7363	106
31.7437	118
31.7511	106
31.7585	107
31.7659	105
31.7733	75
31.7807	108
31.7881	108
31.7955	105
31.8029	99
31.8103	113
31.8177	113
31.8251	100
31.8325	105
31.8399	90
31.8473	110
31.8547	129
31.8621	137
31.8695	109
31.8769	128
31.8842	124
31.8916	140
31.8990	128
31.9064	114
31.9138	137
31.9212	137
31.9286	144
31.9360	131
31.9434	140
31.9508	151
31.9582	146
31.9656	163
31.9730	150
31.9804	153
31.9878	151
31.9952	166
32.0026	141
32.0100	155
32.0174	124
32.0248	149
32.0322	152
32.0395	153
32.0469	126
32.0543	132
32.0617	103
32.0691	125
32.0765	126
32.0839	97
32.0913	122
32.0987	112
32.1061	132
32.1135	101
32.1209	98
32.1283	105
32.1357	89
32.1431	96
32.1505	112
32.1579	106
32.1653	83
32.1727	92
32.1801	84
32.1875	95
32.1948	102
32.2022	78
32.2096	108
32.2170	79
32.2244	107
32.2318	84
32.2392	78
32.2466	81
32.2540	94
32.2614	103
32.2688	68
32.2762	89
32.2836	77
32.2910	89
32.2984	87
32.3058	91
32.3132	86
32.3206	74
32.3280	79
32.3354	102
32.3428	66
32.3501	77
32.3575	72
32.3649	87
32.3723	95
32.3797	95
32.3871	87
32.3945	84
32.4019	102
32.4093	87
32.4167	82
32.4241	58
32.4315	81
32.4389	90
32.4463	83
32.4537	104
32.4611	78
32.4685	95
32.4759	63
32.4833	90
32.4907	80
32.4981	87
32.5054	85
32.5128	83
32.5202	86
32.5276	92
32.5350	65
32.5424	83
32.5498	89
32.5572	77
32.5646	92
32.5720	86
32.5794	84
32.5868	81
32.5942	76
32.6016	91
32.6090	91
32.6164	94
32.6238	95
32.6312	65
32.6386	78
32.6460	90
32.6534	89
32.6607	84
32.6681	85
32.6755	88
32.6829	88
32.6903	75
32.6977	92
32.7051	76
32.7125	87
32.7199	77
32.7273	81
32.7347	105
32.7421	88
32.7495	93
32.7569	81
32.7643	87
32.7717	87
32.7791	100
32.7865	97
32.7939	85
32.8013	80
32.8087	79
32.8160	89
32.8234	104
32.8308	87
32.8382	78
32.8456	102
32.8530	103
32.8604	109
32.8678	104
32.8752	106
32.8826	117
32.8900	102
32.8974	105
32.9048	105
32.9122	91
32.9196	94
32.9270	81
32.9344	114
32.9418	98
32.9492	103
32.9566	87
32.9640	96
32.9713	108
32.9787	91
32.9861	90
32.9935	81
33.0009	87
33.0083	88
33.0157	76
33.0231	89
33.0305	80
33.0379	105
33.0453	86
33.0527	99
33.0601	87
33.0675	93
33.0749	85
33.0823	101
33.0897	98
33.0971	81
33.1045	81
33.1119	94
33.1193	89
33.1266	73
33.1340	83
33.1414	94
33.1488	106
33.1562	98
33.1636	98
33.1710	95
33.1784	94
33.1858	96
33.1932	74
33.2006	106
33.2080	91
33.2154	92
33.2228	86
33.2302	91
33.2376	88
33.2450	105
33.2524	94
33.2598	109
33.2672	95
33.2746	113
33.2819	116
33.2893	118
33.2967	118
33.3041	118
33.3115	129
33.3189	125
33.3263	131
33.3337	132
33.3411	109
33.3485	114
33.3559	122
33.3633	109
33.3707	123
33.3781	122
33.3855	142
33.3929	129
33.4003	145
33.4077	139
33.4151	130
33.4225	132
33.4299	130
33.4373	146
33.4446	158
33.4520	167
33.4594	168
33.4668	192
33.4742	190
33.4816	198
33.4890	212
33.4964	245
33.5038	270
33.5112	283
33.5186	304
33.5260	290
33.5334	293
33.5408	319
33.5482	325
33.5556	339
33.5630	319
33.5704	318
33.5778	330
33.5852	322
33.5926	334
33.5999	348
33.6073	335
33.6147	296
33.6221	317
33.6295	284
33.6369	271
33.6443	285
33.6517	253
33.6591	262
33.6665	252
33.6739	251
33.6813	218
33.6887	226
33.6961	222
33.7035	217
33.7109	180
33.7183	168
33.7257	171
33.7331	154
33.7405	161
33.7479	145
33.7552	153
33.7626	138
33.7700	128
33.7774	127
33.7848	116
33.7922	130
33.7996	129
33.8070	118
33.8144	105
33.8218	115
33.8292	96
33.8366	109
33.8440	105
33.8514	77
33.8588	105
33.8662	96
33.8736	115
33.8810	111
33.8884	103
33.8958	116
33.9032	110
33.9105	111
33.9179	115
33.9253	95
33.9327	110
33.9401	107
33.9475	137
33.9549	111
33.9623	141
33.9697	106
33.9771	120
33.9845	121
33.9919	105
33.9993	124
34.0067	130
34.0141	98
34.0215	119
34.0289	109
34.0363	125
34.0437	115
34.0511	124
34.0585	144
34.0658	137
34.0732	120
34.0806	146
34.0880	139
34.0954	137
34.1028	127
34.1102	116
34.1176	123
34.1250	113
34.1324	122
34.1398	116
34.1472	124
34.1546	121
34.1620	133
34.1694	105
34.1768	102
34.1842	116
34.1916	95
34.1990	105
34.2064	108
34.2138	105
34.2211	102
34.2285	88
34.2359	97
34.2433	78
34.2507	73
34.2581	96
34.2655	97
34.2729	80
34.2803	95
34.2877	89
34.2951	85
34.3025	97
34.3099	85
34.3173	87
34.3247	83
34.3321	100
34.3395	103
34.3469	84
34.3543	78
34.3617	100
34.3691	84
34.3764	85
34.3838	96
34.3912	83
34.3986	89
34.4060	79
34.4134	74
34.4208	87
34.4282	93
34.4356	64
34.4430	88
34.4504	77
34.4578	79
34.4652	91
34.4726	81
34.4800	80
34.4874	100
34.4948	88
34.5022	81
34.5096	77
34.5170	98
34.5244	93
34.5317	77
34.5391	84
34.5465	101
34.5539	93
34.5613	89
34.5687	107
34.5761	80
34.5835	99
34.5909	102
34.5983	94
34.6057	91
34.6131	85
34.6205	93
34.6279	84
34.6353	95
34.6427	93
34.6501	95
34.6575	97
34.6649	88
34.6723	88
34.6797	75
34.6870	92
34.6944	90
34.7018	91
34.7092	78
34.7166	93
34.7240	85
34.7314	98
34.7388	83
34.7462	90
34.7536	85
34.7610	78
34.7684	90
34.7758	96
34.7832	83
34.7906	75
34.7980	84
34.8054	64
34.8128	83
34.8202	81
34.8276	87
34.8350	100
34.8423	83
34.8497	94
34.8571	88
34.8645	80
34.8719	109
34.8793	109
34.8867	113
34.8941	89
34.9015	79
34.9089	88
34.9163	97
34.9237	86
34.9311	104
34.9385	106
34.9459	110
34.9533	110
34.9607	103
34.9681	116
34.9755	119
34.9829	121
34.9903	113
34.9977	112
35.0050	134
35.0124	112
35.0198	98
35.0272	112
35.0346	114
35.0420	111
35.0494	106
35.0568	110
35.0642	110
35.0716	108
35.0790	94
35.0864	111
35.0938	114
35.1012	107
35.1086	106
35.1160	130
35.1234	104
35.1308	122
35.1382	128
35.1456	154
35.1530	124
35.1603	132
35.1677	116
35.1751	132
35.1825	117
35.1899	105
35.1973	141
35.2047	133
35.2121	122
35.2195	119
35.2269	122
35.2343	132
35.2417	135
35.2491	103
35.2565	98
35.2639	115
35.2713	122
35.2787	109
35.2861	115
35.2935	118
35.3009	108
35.3083	80
35.3156	106
35.3230	89
35.3304	110
35.3378	100
35.3452	88
35.3526	118
35.3600	108
35.3674	81
35.3748	95
35.3822	91
35.3896	86
35.3970	83
35.4044	89
35.4118	109
35.4192	91
35.4266	96
35.4340	104
35.4414	107
35.4488	111
35.4562	113
35.4636	125
35.4709	156
35.4783	151
35.4857	136
35.4931	146
35.5005	160
35.5079	148
35.5153	145
35.5227	140
35.5301	134
35.5375	133
35.5449	128
35.5523	114
35.5597	107
35.5671	130
35.5745	133
35.5819	121
35.5893	132
35.5967	117
35.6041	106
35.6115	131
35.6189	116
35.6262	110
35.6336	101
35.6410	113
35.6484	107
35.6558	83
35.6632	93
35.6706	94
35.6780	106
35.6854	91
35.6928	97
35.7002	85
35.7076	94
35.7150	95
35.7224	93
35.7298	108
35.7372	93
35.7446	95
35.7520	92
35.7594	88
35.7668	92
35.7742	111
35.7815	103
35.7889	116
35.7963	112
35.8037	111
35.8111	113
35.8185	123
35.8259	100
35.8333	110
35.8407	113
35.8481	125
35.8555	152
35.8629	128
35.8703	145
35.8777	142
35.8851	130
35.8925	140
35.8999	161
35.9073	140
35.9147	183
35.9221	133
35.9295	153
35.9368	151
35.9442	143
35.9516	145
35.9590	132
35.9664	141
35.9738	163
35.9812	175
35.9886	142
35.9960	188
36.0034	198
36.0108	190
36.0182	218
36.0256	212
36.0330	247
36.0404	262
36.0478	276
36.0552	246
36.0626	283
36.0700	247
36.0774	255
36.0848	265
36.0921	237
36.0995	211
36.1069	240
36.1143	241
36.1217	231
36.1291	250
36.1365	238
36.1439	251
36.1513	247
36.1587	239
36.1661	229
36.1735	228
36.1809	216
36.1883	217
36.1957	211
36.2031	203
36.2105	191
36.2179	182
36.2253	156
36.2327	164
36.2401	130
36.2474	175
36.2548	153
36.2622	157
36.2696	163
36.2770	174
36.2844	154
36.2918	142
36.2992	160
36.3066	188
36.3140	198
36.3214	189
36.3288	188
36.3362	201
36.3436	176
36.3510	184
36.3584	160
36.3658	160
36.3732	172
36.3806	171
36.3880	144
36.3954	154
36.4027	163
36.4101	173
36.4175	175
36.4249	150
36.4323	152
36.4397	188
36.4471	162
36.4545	174
36.4619	172
36.4693	146
36.4767	130
36.4841	136
36.4915	120
36.4989	130
36.5063	117
36.5137	134
36.5211	120
36.5285	122
36.5359	114
36.5433	127
36.5507	113
36.5580	117
36.5654	107
36.5728	123
36.5802	110
36.5876	96
36.5950	101
36.6024	112
36.6098	117
36.6172	103
36.6246	102
36.6320	112
36.6394	91
36.6468	96
36.6542	99
36.6616	110
36.6690	112
36.6764	92
36.6838	84
36.6912	78
36.6986	90
36.7060	97
36.7134	114
36.7207	85
36.7281	86
36.7355	93
36.7429	83
36.7503	99
36.7577	86
36.7651	85
36.7725	111
36.7799	88
36.7873	92
36.7947	87
36.8021	85
36.8095	101
36.8169	79
36.8243	96
36.8317	86
36.8391	93
36.8465	91
36.8539	75
36.8613	100
36.8687	94
36.8760	83
36.8834	81
36.8908	77
36.8982	88
36.9056	89
36.9130	83
36.9204	87
36.9278	91
36.9352	84
36.9426	87
36.9500	92
36.9574	100
36.9648	85
36.9722	71
36.9796	81
36.9870	93
36.9944	87
37.0018	96
37.0092	91
37.0166	88
37.0240	104
37.0313	89
37.0387	85
37.0461	79
37.0535	85
37.0609	95
37.0683	93
37.0757	89
37.0831	101
37.0905	92
37.0979	98
37.1053	94
37.1127	96
37.1201	108
37.1275	114
37.1349	113
37.1423	113
37.1497	118
37.1571	125
37.1645	116
37.1719	137
37.1793	101
37.1866	112
37.1940	119
37.2014	118
37.2088	104
37.2162	101
37.2236	100
37.2310	127
37.2384	111
37.2458	119
37.2532	111
37.2606	105
37.2680	99
37.2754	99
37.2828	91
37.2902	110
37.2976	98
37.3050	88
37.3124	94
37.3198	103
37.3272	91
37.3346	88
37.3419	82
37.3493	103
37.3567	108
37.3641	80
37.3715	104
37.3789	81
37.3863	64
37.3937	100
37.4011	112
37.4085	92
37.4159	76
37.4233	83
37.4307	96
37.4381	100
37.4455	97
37.4529	96
37.4603	96
37.4677	109
37.4751	83
37.4825	101
37.4899	113
37.4972	105
37.5046	103
37.5120	107
37.5194	123
37.5268	79
37.5342	132
37.5416	93
37.5490	90
37.5564	98
37.5638	104
37.5712	108
37.5786	127
37.5860	108
37.5934	126
37.6008	135
37.6082	136
37.6156	122
37.6230	132
37.6304	168
37.6378	121
37.6452	151
37.6525	166
37.6599	180
37.6673	182
37.6747	156
37.6821	170
37.6895	183
37.6969	177
37.7043	166
37.7117	179
37.7191	147
37.7265	179
37.7339	141
37.7413	177
37.7487	179
37.7561	165
37.7635	171
37.7709	180
37.7783	163
37.7857	138
37.7931	161
37.8005	139
37.8078	117
37.8152	147
37.8226	142
37.8300	124
37.8374	136
37.8448	123
37.8522	112
37.8596	111
37.8670	121
37.8744	106
37.8818	107
37.8892	108
37.8966	108
37.9040	104
37.9114	122
37.9188	99
37.9262	104
37.9336	97
37.9410	112
37.9484	86
37.9558	125
37.9631	109
37.9705	114
37.9779	95
37.9853	98
37.9927	91
38.0001	102
38.0075	89
38.0149	105
38.0223	88
38.0297	96
38.0371	95
38.0445	111
38.0519	109
38.0593	106
38.0667	90
38.0741	77
38.0815	98
38.0889	101
38.0963	96
38.1037	92
38.1111	107
38.1184	96
38.1258	92
38.1332	98
38.1406	108
38.1480	99
38.1554	93
38.1628	106
38.1702	90
38.1776	99
38.1850	105
38.1924	87
38.1998	96
38.2072	102
38.2146	108
38.2220	106
38.2294	110
38.2368	81
38.2442	100
38.2516	136
38.2590	113
38.2664	121
38.2738	142
38.2811	119
38.2885	138
38.2959	149
38.3033	128
38.3107	109
38.3181	152
38.3255	144
38.3329	148
38.3403	147
38.3477	146
38.3551	150
38.3625	124
38.3699	154
38.3773	142
38.3847	124
38.3921	133
38.3995	145
38.4069	151
38.4143	143
38.4217	143
38.4291	142
38.4364	137
38.4438	147
38.4512	122
38.4586	121
38.4660	138
38.4734	133
38.4808	132
38.4882	134
38.4956	126
38.5030	151
38.5104	158
38.5178	148
38.5252	133
38.5326	126
38.5400	123
38.5474	124
38.5548	117
38.5622	134
38.5696	150
38.5770	154
38.5844	123
38.5917	128
38.5991	132
38.6065	123
38.6139	124
38.6213	123
38.6287	112
38.6361	114
38.6435	105
38.6509	102
38.6583	98
38.6657	119
38.6731	127
38.6805	104
38.6879	95
38.6953	96
38.7027	112
38.7101	103
38.7175	100
38.7249	104
38.7323	94
38.7397	89
38.7470	86
38.7544	92
38.7618	90
38.7692	105
38.7766	92
38.7840	102
38.7914	95
38.7988	93
38.8062	82
38.8136	83
38.8210	98
38.8284	94
38.8358	87
38.8432	97
38.8506	99
38.8580	84
38.8654	102
38.8728	88
38.8802	92
38.8876	84
38.8950	89
38.9023	115
38.9097	120
38.9171	94
38.9245	94
38.9319	96
38.9393	102
38.9467	86
38.9541	84
38.9615	78
38.9689	106
38.9763	109
38.9837	101
38.9911	92
38.9985	92
39.0059	103
39.0133	94
39.0207	110
39.0281	101
39.0355	90
39.0429	85
39.0503	107
39.0576	99
39.0650	102
39.0724	89
39.0798	110
39.0872	99
39.0946	109
39.1020	91
39.1094	105
39.1168	99
39.1242	123
39.1316	98
39.1390	106
39.1464	96
39.1538	108
39.1612	127
39.1686	132
39.1760	101
39.1834	108
39.1908	153
39.1982	131
39.2056	153
39.2129	138
39.2203	137
39.2277	135
39.2351	169
39.2425	181
39.2499	180
39.2573	211
39.2647	244
39.2721	225
39.2795	243
39.2869	232
39.2943	232
39.3017	246
39.3091	242
39.3165	206
39.3239	248
39.3313	225
39.3387	239
39.3461	233
39.3535	230
39.3609	246
39.3682	270
39.3756	241
39.3830	230
39.3904	194
39.3978	240
39.4052	243
39.4126	257
39.4200	232
39.4274	205
39.4348	225
39.4422	221
39.4496	207
39.4570	205
39.4644	219
39.4718	198
39.4792	215
39.4866	186
39.4940	189
39.5014	188
39.5088	203
39.5162	172
39.5235	166
39.5309	166
39.5383	166
39.5457	158
39.5531	151
39.5605	150
39.5679	145
39.5753	163
39.5827	159
39.5901	109
39.5975	128
39.6049	153
39.6123	134
39.6197	130
39.6271	136
39.6345	113
39.6419	106
39.6493	126
39.6567	117
39.6641	112
39.6715	112
39.6788	114
39.6862	91
39.6936	124
39.7010	140
39.7084	117
39.7158	126
39.7232	100
39.7306	113
39.7380	89
39.7454	104
39.7528	103
39.7602	108
39.7676	105
39.7750	112
39.7824	123
39.7898	123
39.7972	110
39.8046	105
39.8120	111
39.8194	123
39.8268	119
39.8342	108
39.8415	105
39.8489	104
39.8563	107
39.8637	105
39.8711	122
39.8785	120
39.8859	112
39.8933	116
39.9007	126
39.9081	143
39.9155	122
39.9229	105
39.9303	125
39.9377	117
39.9451	108
39.9525	119
39.9599	103
39.9673	106
39.9747	142
39.9821	131
39.9895	108
39.9968	116
