2.0000	138
2.0074	128
2.0148	136
2.0222	117
2.0296	130
2.0370	147
2.0444	130
2.0518	123
2.0592	138
2.0666	127
2.0740	142
2.0813	141
2.0887	134
2.0961	127
2.1035	135
2.1109	159
2.1183	151
2.1257	148
2.1331	124
2.1405	146
2.1479	137
2.1553	120
2.1627	145
2.1701	134
2.1775	139
2.1849	149
2.1923	143
2.1997	138
2.2071	144
2.2145	122
2.2219	155
2.2293	111
2.2366	139
2.2440	158
2.2514	138
2.2588	140
2.2662	129
2.2736	137
2.2810	151
2.2884	153
2.2958	138
2.3032	133
2.3106	130
2.3180	129
2.3254	148
2.3328	135
2.3402	116
2.3476	155
2.3550	119
2.3624	134
2.3698	146
2.3772	142
2.3846	146
2.3919	144
2.3993	131
2.4067	143
2.4141	162
2.4215	136
2.4289	128
2.4363	127
2.4437	147
2.4511	129
2.4585	138
2.4659	116
2.4733	141
2.4807	126
2.4881	156
2.4955	138
2.5029	146
2.5103	145
2.5177	139
2.5251	140
2.5325	155
2.5399	146
2.5472	133
2.5546	140
2.5620	130
2.5694	146
2.5768	161
2.5842	144
2.5916	139
2.5990	143
2.6064	160
2.6138	141
2.6212	154
2.6286	138
2.6360	127
2.6434	131
2.6508	145
2.6582	142
2.6656	160
2.6730	143
2.6804	145
2.6878	150
2.6952	165
2.7025	138
2.7099	156
2.7173	139
2.7247	165
2.7321	140
2.7395	142
2.7469	134
2.7543	110
2.7617	145
2.7691	138
2.7765	142
2.7839	158
2.7913	132
2.7987	148
2.8061	125
2.8135	143
2.8209	115
2.8283	151
2.8357	137
2.8431	140
2.8505	125
2.8579	143
2.8652	144
2.8726	128
2.8800	156
2.8874	142
2.8948	146
2.9022	134
2.9096	135
2.9170	150
2.9244	149
2.9318	142
2.9392	126
2.9466	163
2.9540	144
2.9614	143
2.9688	154
2.9762	142
2.9836	137
2.9910	130
2.9984	142
3.0058	155
3.0132	151
3.0205	137
3.0279	151
3.0353	135
3.0427	147
3.0501	143
3.0575	127
3.0649	129
3.0723	140
3.0797	142
3.0871	134
3.0945	122
3.1019	141
3.1093	145
3.1167	141
3.1241	149
3.1315	150
3.1389	126
3.1463	129
3.1537	121
3.1611	154
3.1685	144
3.1758	142
3.1832	154
3.1906	163
3.1980	154
3.2054	141
3.2128	152
3.2202	156
3.2276	147
3.2350	153
3.2424	122
3.2498	156
3.2572	115
3.2646	120
3.2720	152
3.2794	147
3.2868	167
3.2942	155
3.3016	153
3.3090	150
3.3164	134
3.3238	145
3.3311	142
3.3385	125
3.3459	161
3.3533	156
3.3607	161
3.3681	149
3.3755	144
3.3829	143
3.3903	138
3.3977	142
3.4051	143
3.4125	141
3.4199	149
3.4273	146
3.4347	147
3.4421	153
3.4495	138
3.4569	149
3.4643	149
3.4717	142
3.4791	118
3.4864	133
3.4938	149
3.5012	127
3.5086	162
3.5160	154
3.5234	147
3.5308	132
3.5382	142
3.5456	133
3.5530	135
3.5604	142
3.5678	152
3.5752	145
3.5826	163
3.5900	152
3.5974	141
3.6048	155
3.6122	138
3.6196	158
3.6270	138
3.6344	141
3.6417	139
3.6491	139
3.6565	137
3.6639	142
3.6713	123
3.6787	146
3.6861	106
3.6935	133
3.7009	125
3.7083	129
3.7157	122
3.7231	144
3.7305	131
3.7379	144
3.7453	139
3.7527	141
3.7601	139
3.7675	145
3.7749	136
3.7823	126
3.7897	138
3.7970	130
3.8044	105
3.8118	113
3.8192	125
3.8266	134
3.8340	129
3.8414	130
3.8488	118
3.8562	139
3.8636	141
3.8710	133
3.8784	130
3.8858	139
3.8932	146
3.9006	120
3.9080	126
3.9154	119
3.9228	104
3.9302	130
3.9376	132
3.9450	149
3.9523	121
3.9597	144
3.9671	117
3.9745	133
3.9819	105
3.9893	127
3.9967	106
4.0041	127
4.0115	129
4.0189	139
4.0263	128
4.0337	121
4.0411	155
4.0485	118
4.0559	122
4.0633	133
4.0707	128
4.0781	115
4.0855	113
4.0929	114
4.1003	117
4.1076	129
4.1150	115
4.1224	110
4.1298	123
4.1372	112
4.1446	105
4.1520	109
4.1594	99
4.1668	125
4.1742	131
4.1816	109
4.1890	113
4.1964	117
4.2038	116
4.2112	96
4.2186	118
4.2260	102
4.2334	113
4.2408	134
4.2482	120
4.2556	107
4.2629	103
4.2703	111
4.2777	119
4.2851	107
4.2925	112
4.2999	105
4.3073	117
4.3147	134
4.3221	122
4.3295	121
4.3369	104
4.3443	122
4.3517	113
4.3591	102
4.3665	117
4.3739	121
4.3813	99
4.3887	115
4.3961	113
4.4035	105
4.4109	134
4.4183	95
4.4256	100
4.4330	95
4.4404	98
4.4478	119
4.4552	128
4.4626	120
4.4700	121
4.4774	114
4.4848	121
4.4922	96
4.4996	95
4.5070	95
4.5144	108
4.5218	115
4.5292	116
4.5366	103
4.5440	105
4.5514	107
4.5588	109
4.5662	94
4.5736	105
4.5809	82
4.5883	94
4.5957	97
4.6031	110
4.6105	99
4.6179	120
4.6253	103
4.6327	91
4.6401	95
4.6475	82
4.6549	129
4.6623	94
4.6697	103
4.6771	96
4.6845	105
4.6919	95
4.6993	95
4.7067	90
4.7141	111
4.7215	108
4.7289	97
4.7362	91
4.7436	102
4.7510	111
4.7584	98
4.7658	95
4.7732	102
4.7806	84
4.7880	98
4.7954	76
4.8028	114
4.8102	89
4.8176	94
4.8250	100
4.8324	81
4.8398	98
4.8472	93
4.8546	93
4.8620	84
4.8694	64
4.8768	115
4.8842	99
4.8915	99
4.8989	99
4.9063	80
4.9137	98
4.9211	94
4.9285	79
4.9359	98
4.9433	89
4.9507	91
4.9581	81
4.9655	100
4.9729	79
4.9803	114
4.9877	93
4.9951	91
5.0025	103
5.0099	83
5.0173	102
5.0247	106
5.0321	111
5.0395	104
5.0468	93
5.0542	83
5.0616	85
5.0690	97
5.0764	95
5.0838	94
5.0912	88
5.0986	88
5.1060	89
5.1134	95
5.1208	87
5.1282	76
5.1356	81
5.1430	88
5.1504	88
5.1578	101
5.1652	77
5.1726	94
5.1800	79
5.1874	80
5.1948	105
5.2021	86
5.2095	94
5.2169	101
5.2243	95
5.2317	96
5.2391	73
5.2465	109
5.2539	82
5.2613	81
5.2687	97
5.2761	74
5.2835	82
5.2909	84
5.2983	89
5.3057	93
5.3131	91
5.3205	82
5.3279	88
5.3353	80
5.3427	87
5.3501	85
5.3574	93
5.3648	71
5.3722	90
5.3796	107
5.3870	95
5.3944	96
5.4018	107
5.4092	98
5.4166	96
5.4240	109
5.4314	100
5.4388	108
5.4462	89
5.4536	104
5.4610	104
5.4684	96
5.4758	94
5.4832	106
5.4906	103
5.4980	100
5.5054	109
5.5127	78
5.5201	98
5.5275	87
5.5349	88
5.5423	95
5.5497	86
5.5571	90
5.5645	88
5.5719	70
5.5793	93
5.5867	88
5.5941	102
5.6015	96
5.6089	102
5.6163	99
5.6237	89
5.6311	92
5.6385	94
5.6459	100
5.6533	100
5.6607	127
5.6680	80
5.6754	104
5.6828	107
5.6902	111
5.6976	91
5.7050	107
5.7124	106
5.7198	100
5.7272	103
5.7346	118
5.7420	104
5.7494	108
5.7568	100
5.7642	98
5.7716	130
5.7790	111
5.7864	134
5.7938	140
5.8012	149
5.8086	127
5.8160	162
5.8233	156
5.8307	175
5.8381	202
5.8455	183
5.8529	200
5.8603	215
5.8677	231
5.8751	215
5.8825	230
5.8899	224
5.8973	250
5.9047	270
5.9121	285
5.9195	304
5.9269	346
5.9343	378
5.9417	413
5.9491	441
5.9565	543
5.9639	690
5.9713	752
5.9786	1005
5.9860	1310
5.9934	1716
6.0008	2182
6.0082	2688
6.0156	3084
6.0230	3154
6.0304	3011
6.0378	2684
6.0452	2194
6.0526	1644
6.0600	1299
6.0674	1002
6.0748	757
6.0822	608
6.0896	535
6.0970	428
6.1044	407
6.1118	353
6.1192	322
6.1266	304
6.1340	280
6.1413	256
6.1487	219
6.1561	212
6.1635	190
6.1709	182
6.1783	157
6.1857	173
6.1931	158
6.2005	149
6.2079	135
6.2153	137
6.2227	146
6.2301	129
6.2375	141
6.2449	123
6.2523	134
6.2597	137
6.2671	106
6.2745	127
6.2819	110
6.2893	132
6.2966	117
6.3040	105
6.3114	106
6.3188	109
6.3262	109
6.3336	112
6.3410	125
6.3484	95
6.3558	84
6.3632	118
6.3706	121
6.3780	86
6.3854	92
6.3928	96
6.4002	93
6.4076	106
6.4150	100
6.4224	117
6.4298	105
6.4372	92
6.4446	70
6.4519	99
6.4593	101
6.4667	105
6.4741	91
6.4815	102
6.4889	108
6.4963	95
6.5037	107
6.5111	95
6.5185	110
6.5259	91
6.5333	96
6.5407	105
6.5481	97
6.5555	89
6.5629	97
6.5703	106
6.5777	102
6.5851	95
6.5925	84
6.5999	85
6.6072	103
6.6146	90
6.6220	106
6.6294	92
6.6368	82
6.6442	85
6.6516	93
6.6590	105
6.6664	88
6.6738	101
6.6812	90
6.6886	103
6.6960	98
6.7034	89
6.7108	79
6.7182	85
6.7256	100
6.7330	93
6.7404	95
6.7478	98
6.7552	81
6.7625	74
6.7699	82
6.7773	86
6.7847	114
6.7921	91
6.7995	103
6.8069	99
6.8143	85
6.8217	95
6.8291	94
6.8365	87
6.8439	87
6.8513	100
6.8587	100
6.8661	89
6.8735	75
6.8809	94
6.8883	93
6.8957	79
6.9031	92
6.9105	100
6.9178	85
6.9252	100
6.9326	88
6.9400	96
6.9474	88
6.9548	72
6.9622	112
6.9696	88
6.9770	92
6.9844	84
6.9918	103
6.9992	91
7.0066	87
7.0140	94
7.0214	88
7.0288	82
7.0362	98
7.0436	86
7.0510	90
7.0584	92
7.0658	88
7.0731	94
7.0805	88
7.0879	104
7.0953	96
7.1027	87
7.1101	78
7.1175	97
7.1249	93
7.1323	117
7.1397	77
7.1471	87
7.1545	79
7.1619	85
7.1693	93
7.1767	81
7.1841	92
7.1915	88
7.1989	88
7.2063	108
7.2137	73
7.2211	82
7.2284	93
7.2358	103
7.2432	89
7.2506	85
7.2580	82
7.2654	101
7.2728	79
7.2802	68
7.2876	85
7.2950	86
7.3024	82
7.3098	88
7.3172	73
7.3246	94
7.3320	86
7.3394	82
7.3468	91
7.3542	81
7.3616	74
7.3690	81
7.3764	109
7.3837	73
7.3911	73
7.3985	92
7.4059	62
7.4133	94
7.4207	81
7.4281	86
7.4355	78
7.4429	71
7.4503	88
7.4577	82
7.4651	86
7.4725	88
7.4799	88
7.4873	88
7.4947	81
7.5021	80
7.5095	84
7.5169	75
7.5243	90
7.5317	88
7.5390	95
7.5464	98
7.5538	82
7.5612	79
7.5686	74
7.5760	84
7.5834	59
7.5908	74
7.5982	103
7.6056	84
7.6130	92
7.6204	99
7.6278	95
7.6352	87
7.6426	73
7.6500	77
7.6574	88
7.6648	89
7.6722	80
7.6796	92
7.6870	61
7.6944	84
7.7017	97
7.7091	88
7.7165	84
7.7239	84
7.7313	86
7.7387	85
7.7461	89
7.7535	96
7.7609	89
7.7683	91
7.7757	87
7.7831	100
7.7905	91
7.7979	68
7.8053	89
7.8127	78
7.8201	81
7.8275	86
7.8349	77
7.8423	81
7.8497	79
7.8570	92
7.8644	86
7.8718	91
7.8792	64
7.8866	73
7.8940	81
7.9014	86
7.9088	75
7.9162	78
7.9236	85
7.9310	76
7.9384	81
7.9458	74
7.9532	87
7.9606	96
7.9680	77
7.9754	81
7.9828	92
7.9902	87
7.9976	113
8.0050	94
8.0123	89
8.0197	89
8.0271	99
8.0345	77
8.0419	85
8.0493	80
8.0567	89
8.0641	96
8.0715	98
8.0789	100
8.0863	96
8.0937	96
8.1011	93
8.1085	104
8.1159	90
8.1233	89
8.1307	116
8.1381	86
8.1455	105
8.1529	91
8.1603	97
8.1676	116
8.1750	108
8.1824	117
8.1898	111
8.1972	128
8.2046	131
8.2120	136
8.2194	135
8.2268	157
8.2342	148
8.2416	137
8.2490	168
8.2564	162
8.2638	179
8.2712	162
8.2786	177
8.2860	193
8.2934	201
8.3008	212
8.3082	226
8.3156	243
8.3229	228
8.3303	292
8.3377	280
8.3451	307
8.3525	329
8.3599	311
8.3673	321
8.3747	342
8.3821	398
8.3895	430
8.3969	500
8.4043	496
8.4117	624
8.4191	653
8.4265	729
8.4339	856
8.4413	959
8.4487	1114
8.4561	1304
8.4635	1582
8.4709	1913
8.4782	2429
8.4856	2961
8.4930	3763
8.5004	4275
8.5078	5029
8.5152	5237
8.5226	5202
8.5300	5163
8.5374	4884
8.5448	4471
8.5522	4185
8.5596	3910
8.5670	3413
8.5744	3218
8.5818	2860
8.5892	2600
8.5966	2340
8.6040	2063
8.6114	1882
8.6188	1649
8.6262	1402
8.6335	1247
8.6409	1006
8.6483	878
8.6557	774
8.6631	701
8.6705	553
8.6779	521
8.6853	451
8.6927	414
8.7001	358
8.7075	317
8.7149	291
8.7223	306
8.7297	249
8.7371	254
8.7445	193
8.7519	224
8.7593	198
8.7667	178
8.7741	175
8.7815	174
8.7888	173
8.7962	171
8.8036	147
8.8110	165
8.8184	168
8.8258	149
8.8332	149
8.8406	143
8.8480	159
8.8554	137
8.8628	140
8.8702	159
8.8776	133
8.8850	129
8.8924	130
8.8998	131
8.9072	119
8.9146	154
8.9220	140
8.9294	146
8.9368	121
8.9441	131
8.9515	131
8.9589	134
8.9663	140
8.9737	140
8.9811	129
8.9885	137
8.9959	122
9.0033	127
9.0107	112
9.0181	117
9.0255	125
9.0329	112
9.0403	127
9.0477	119
9.0551	117
9.0625	117
9.0699	110
9.0773	112
9.0847	113
9.0921	110
9.0994	117
9.1068	115
9.1142	103
9.1216	120
9.1290	108
9.1364	130
9.1438	107
9.1512	121
9.1586	121
9.1660	136
9.1734	101
9.1808	135
9.1882	111
9.1956	100
9.2030	128
9.2104	114
9.2178	138
9.2252	107
9.2326	105
9.2400	110
9.2474	111
9.2548	124
9.2621	134
9.2695	120
9.2769	116
9.2843	113
9.2917	131
9.2991	106
9.3065	112
9.3139	128
9.3213	121
9.3287	131
9.3361	100
9.3435	110
9.3509	115
9.3583	105
9.3657	113
9.3731	110
9.3805	126
9.3879	125
9.3953	98
9.4027	116
9.4101	115
9.4174	104
9.4248	104
9.4322	92
9.4396	103
9.4470	119
9.4544	89
9.4618	100
9.4692	83
9.4766	101
9.4840	88
9.4914	114
9.4988	95
9.5062	108
9.5136	102
9.5210	113
9.5284	103
9.5358	82
9.5432	129
9.5506	108
9.5580	86
9.5654	88
9.5727	107
9.5801	100
9.5875	117
9.5949	113
9.6023	97
9.6097	92
9.6171	125
9.6245	107
9.6319	107
9.6393	103
9.6467	103
9.6541	105
9.6615	102
9.6689	100
9.6763	114
9.6837	112
9.6911	105
9.6985	104
9.7059	95
9.7133	98
9.7207	100
9.7280	109
9.7354	88
9.7428	103
9.7502	99
9.7576	101
9.7650	100
9.7724	83
9.7798	122
9.7872	98
9.7946	107
9.8020	105
9.8094	109
9.8168	96
9.8242	110
9.8316	89
9.8390	107
9.8464	100
9.8538	90
9.8612	122
9.8686	100
9.8760	103
9.8833	97
9.8907	100
9.8981	96
9.9055	105
9.9129	98
9.9203	85
9.9277	117
9.9351	101
9.9425	105
9.9499	99
9.9573	101
9.9647	94
9.9721	104
9.9795	131
9.9869	88
9.9943	111
10.0017	90
10.0091	111
10.0165	114
10.0239	103
10.0313	103
10.0386	104
10.0460	103
10.0534	97
10.0608	112
10.0682	108
10.0756	94
10.0830	117
10.0904	101
10.0978	100
10.1052	98
10.1126	98
10.1200	102
10.1274	86
10.1348	95
10.1422	85
10.1496	106
10.1570	85
10.1644	96
10.1718	99
10.1792	82
10.1866	101
10.1939	85
10.2013	101
10.2087	106
10.2161	81
10.2235	95
10.2309	105
10.2383	95
10.2457	93
10.2531	102
10.2605	109
10.2679	94
10.2753	77
10.2827	87
10.2901	107
10.2975	81
10.3049	77
10.3123	85
10.3197	97
10.3271	120
10.3345	92
10.3419	104
10.3492	91
10.3566	99
10.3640	90
10.3714	84
10.3788	86
10.3862	96
10.3936	91
10.4010	114
10.4084	91
10.4158	90
10.4232	88
10.4306	75
10.4380	85
10.4454	100
10.4528	91
10.4602	112
10.4676	88
10.4750	99
10.4824	105
10.4898	96
10.4972	92
10.5045	94
10.5119	84
10.5193	101
10.5267	90
10.5341	86
10.5415	102
10.5489	99
10.5563	114
10.5637	83
10.5711	101
10.5785	101
10.5859	87
10.5933	92
10.6007	102
10.6081	101
10.6155	83
10.6229	99
10.6303	102
10.6377	98
10.6451	98
10.6525	99
10.6598	109
10.6672	94
10.6746	83
10.6820	85
10.6894	102
10.6968	99
10.7042	87
10.7116	83
10.7190	88
10.7264	104
10.7338	97
10.7412	99
10.7486	78
10.7560	74
10.7634	90
10.7708	88
10.7782	86
10.7856	92
10.7930	91
10.8004	94
10.8078	84
10.8151	84
10.8225	79
10.8299	96
10.8373	100
10.8447	76
10.8521	101
10.8595	94
10.8669	94
10.8743	96
10.8817	100
10.8891	101
10.8965	99
10.9039	95
10.9113	106
10.9187	91
10.9261	94
10.9335	92
10.9409	90
10.9483	96
10.9557	84
10.9631	78
10.9705	105
10.9778	82
10.9852	93
10.9926	97
11.0000	93
11.0074	115
11.0148	83
11.0222	100
11.0296	92
11.0370	93
11.0444	87
11.0518	104
11.0592	84
11.0666	88
11.0740	75
11.0814	90
11.0888	73
11.0962	88
11.1036	100
11.1110	111
11.1184	106
11.1258	102
11.1331	92
11.1405	93
11.1479	87
11.1553	107
11.1627	103
11.1701	88
11.1775	89
11.1849	102
11.1923	72
11.1997	86
11.2071	95
11.2145	82
11.2219	83
11.2293	98
11.2367	93
11.2441	103
11.2515	96
11.2589	105
11.2663	93
11.2737	98
11.2811	111
11.2884	103
11.2958	117
11.3032	114
11.3106	95
11.3180	90
11.3254	117
11.3328	118
11.3402	93
11.3476	104
11.3550	105
11.3624	108
11.3698	122
11.3772	113
11.3846	99
11.3920	125
11.3994	116
11.4068	106
11.4142	110
11.4216	120
11.4290	123
11.4364	114
11.4437	119
11.4511	111
11.4585	109
11.4659	126
11.4733	115
11.4807	106
11.4881	113
11.4955	114
11.5029	112
11.5103	123
11.5177	128
11.5251	114
11.5325	144
11.5399	131
11.5473	154
11.5547	153
11.5621	145
11.5695	167
11.5769	144
11.5843	170
11.5917	182
11.5990	182
11.6064	202
11.6138	240
11.6212	232
11.6286	279
11.6360	316
11.6434	383
11.6508	378
11.6582	467
11.6656	623
11.6730	759
11.6804	862
11.6878	1088
11.6952	1252
11.7026	1351
11.7100	1448
11.7174	1581
11.7248	1575
11.7322	1661
11.7396	1692
11.7470	1581
11.7543	1481
11.7617	1405
11.7691	1307
11.7765	1284
11.7839	1077
11.7913	989
11.7987	934
11.8061	811
11.8135	745
11.8209	640
11.8283	655
11.8357	509
11.8431	483
11.8505	452
11.8579	380
11.8653	331
11.8727	270
11.8801	253
11.8875	187
11.8949	194
11.9023	199
11.9096	167
11.9170	184
11.9244	157
11.9318	145
11.9392	170
11.9466	168
11.9540	200
11.9614	172
11.9688	183
11.9762	222
11.9836	223
11.9910	249
11.9984	268
12.0058	243
12.0132	277
12.0206	218
12.0280	231
12.0354	210
12.0428	205
12.0502	216
12.0576	198
12.0649	192
12.0723	165
12.0797	183
12.0871	144
12.0945	187
12.1019	193
12.1093	180
12.1167	158
12.1241	194
12.1315	163
12.1389	161
12.1463	176
12.1537	149
12.1611	192
12.1685	176
12.1759	193
12.1833	194
12.1907	216
12.1981	216
12.2055	243
12.2129	255
12.2202	274
12.2276	313
12.2350	337
12.2424	406
12.2498	446
12.2572	498
12.2646	573
12.2720	610
12.2794	654
12.2868	721
12.2942	828
12.3016	977
12.3090	1115
12.3164	1325
12.3238	1680
12.3312	1922
12.3386	2036
12.3460	2476
12.3534	2508
12.3608	2659
12.3682	2661
12.3755	2789
12.3829	2724
12.3903	2612
12.3977	2403
12.4051	2368
12.4125	2365
12.4199	2403
12.4273	2398
12.4347	2236
12.4421	2100
12.4495	1854
12.4569	1709
12.4643	1576
12.4717	1327
12.4791	1152
12.4865	955
12.4939	855
12.5013	805
12.5087	724
12.5161	670
12.5235	658
12.5309	606
12.5382	513
12.5456	483
12.5530	449
12.5604	363
12.5678	315
12.5752	275
12.5826	231
12.5900	231
12.5974	212
12.6048	221
12.6122	186
12.6196	180
12.6270	199
12.6344	156
12.6418	151
12.6492	172
12.6566	147
12.6640	159
12.6714	162
12.6788	171
12.6862	128
12.6935	166
12.7009	161
12.7083	156
12.7157	157
12.7231	139
12.7305	140
12.7379	150
12.7453	146
12.7527	136
12.7601	150
12.7675	126
12.7749	161
12.7823	152
12.7897	126
12.7971	140
12.8045	152
12.8119	144
12.8193	142
12.8267	169
12.8341	161
12.8415	143
12.8488	141
12.8562	169
12.8636	159
12.8710	132
12.8784	119
12.8858	158
12.8932	159
12.9006	140
12.9080	150
12.9154	142
12.9228	142
12.9302	130
12.9376	142
12.9450	140
12.9524	150
12.9598	149
12.9672	161
12.9746	163
12.9820	146
12.9894	148
12.9968	155
13.0041	152
13.0115	140
13.0189	131
13.0263	163
13.0337	178
13.0411	157
13.0485	148
13.0559	160
13.0633	124
13.0707	149
13.0781	154
13.0855	163
13.0929	191
13.1003	180
13.1077	188
13.1151	178
13.1225	227
13.1299	238
13.1373	223
13.1447	264
13.1521	302
13.1594	293
13.1668	384
13.1742	469
13.1816	540
13.1890	577
13.1964	737
13.2038	911
13.2112	1006
13.2186	1125
13.2260	1277
13.2334	1383
13.2408	1385
13.2482	1567
13.2556	1459
13.2630	1499
13.2704	1458
13.2778	1470
13.2852	1403
13.2926	1262
13.3000	1320
13.3074	1188
13.3147	1155
13.3221	1056
13.3295	1001
13.3369	1029
13.3443	894
13.3517	852
13.3591	684
13.3665	679
13.3739	516
13.3813	464
13.3887	441
13.3961	360
13.4035	333
13.4109	284
13.4183	261
13.4257	240
13.4331	215
13.4405	228
13.4479	207
13.4553	176
13.4627	195
13.4700	197
13.4774	232
13.4848	194
13.4922	197
13.4996	207
13.5070	247
13.5144	205
13.5218	232
13.5292	241
13.5366	241
13.5440	244
13.5514	242
13.5588	293
13.5662	296
13.5736	366
13.5810	353
13.5884	448
13.5958	531
13.6032	575
13.6106	648
13.6180	766
13.6253	916
13.6327	1158
13.6401	1449
13.6475	1695
13.6549	1941
13.6623	2201
13.6697	2293
13.6771	2464
13.6845	2532
13.6919	2604
13.6993	2560
13.7067	2628
13.7141	2601
13.7215	2505
13.7289	2473
13.7363	2325
13.7437	2250
13.7511	2110
13.7585	1927
13.7659	1775
13.7733	1592
13.7806	1441
13.7880	1250
13.7954	1046
13.8028	971
13.8102	857
13.8176	767
13.8250	642
13.8324	619
13.8398	554
13.8472	478
13.8546	403
13.8620	364
13.8694	308
13.8768	261
13.8842	258
13.8916	221
13.8990	219
13.9064	194
13.9138	193
13.9212	198
13.9286	176
13.9359	188
13.9433	168
13.9507	179
13.9581	174
13.9655	187
13.9729	158
13.9803	154
13.9877	172
13.9951	167
14.0025	141
14.0099	143
14.0173	171
14.0247	144
14.0321	152
14.0395	130
14.0469	136
14.0543	154
14.0617	143
14.0691	167
14.0765	137
14.0839	146
14.0913	130
14.0986	136
14.1060	129
14.1134	136
14.1208	169
14.1282	139
14.1356	137
14.1430	140
14.1504	141
14.1578	111
14.1652	153
14.1726	134
14.1800	174
14.1874	134
14.1948	136
14.2022	142
14.2096	138
14.2170	130
14.2244	143
14.2318	130
14.2392	131
14.2466	143
14.2539	149
14.2613	138
14.2687	157
14.2761	127
14.2835	141
14.2909	151
14.2983	135
14.3057	124
14.3131	141
14.3205	169
14.3279	151
14.3353	149
14.3427	133
14.3501	166
14.3575	163
14.3649	151
14.3723	176
14.3797	193
14.3871	198
14.3945	235
14.4019	204
14.4092	247
14.4166	195
14.4240	224
14.4314	229
14.4388	210
14.4462	220
14.4536	250
14.4610	209
14.4684	211
14.4758	215
14.4832	206
14.4906	228
14.4980	174
14.5054	182
14.5128	197
14.5202	175
14.5276	200
14.5350	159
14.5424	137
14.5498	155
14.5572	132
14.5645	152
14.5719	142
14.5793	138
14.5867	141
14.5941	138
14.6015	127
14.6089	129
14.6163	148
14.6237	131
14.6311	130
14.6385	129
14.6459	135
14.6533	131
14.6607	125
14.6681	116
14.6755	143
14.6829	149
14.6903	129
14.6977	152
14.7051	142
14.7125	155
14.7198	146
14.7272	184
14.7346	197
14.7420	214
14.7494	232
14.7568	195
14.7642	252
14.7716	260
14.7790	238
14.7864	266
14.7938	288
14.8012	271
14.8086	274
14.8160	261
14.8234	283
14.8308	234
14.8382	309
14.8456	292
14.8530	273
14.8604	259
14.8678	236
14.8751	274
14.8825	246
14.8899	220
14.8973	201
14.9047	199
14.9121	190
14.9195	225
14.9269	185
14.9343	156
14.9417	183
14.9491	145
14.9565	138
14.9639	143
14.9713	162
14.9787	137
14.9861	112
14.9935	146
15.0009	130
15.0083	142
15.0157	110
15.0231	129
15.0304	124
15.0378	112
15.0452	101
15.0526	113
15.0600	112
15.0674	142
15.0748	137
15.0822	114
15.0896	109
15.0970	103
15.1044	144
15.1118	127
15.1192	128
15.1266	145
15.1340	121
15.1414	138
15.1488	146
15.1562	126
15.1636	157
15.1710	176
15.1784	178
15.1857	193
15.1931	210
15.2005	257
15.2079	247
15.2153	291
15.2227	251
15.2301	267
15.2375	276
15.2449	286
15.2523	247
15.2597	281
15.2671	306
15.2745	255
15.2819	273
15.2893	247
15.2967	255
15.3041	245
15.3115	245
15.3189	228
15.3263	216
15.3337	183
15.3410	199
15.3484	186
15.3558	188
15.3632	142
15.3706	155
15.3780	152
15.3854	160
15.3928	157
15.4002	147
15.4076	142
15.4150	138
15.4224	140
15.4298	115
15.4372	110
15.4446	125
15.4520	147
15.4594	137
15.4668	95
15.4742	130
15.4816	138
15.4890	135
15.4963	121
15.5037	154
15.5111	132
15.5185	124
15.5259	128
15.5333	133
15.5407	143
15.5481	139
15.5555	144
15.5629	155
15.5703	147
15.5777	152
15.5851	169
15.5925	135
15.5999	164
15.6073	153
15.6147	147
15.6221	171
15.6295	159
15.6369	139
15.6443	139
15.6516	144
15.6590	145
15.6664	131
15.6738	129
15.6812	120
15.6886	141
15.6960	135
15.7034	107
15.7108	118
15.7182	132
15.7256	130
15.7330	107
15.7404	99
15.7478	124
15.7552	119
15.7626	112
15.7700	97
15.7774	119
15.7848	116
15.7922	112
15.7996	99
15.8070	94
15.8143	94
15.8217	83
15.8291	110
15.8365	99
15.8439	103
15.8513	107
15.8587	84
15.8661	104
15.8735	119
15.8809	101
15.8883	92
15.8957	96
15.9031	107
15.9105	105
15.9179	106
15.9253	114
15.9327	105
15.9401	90
15.9475	97
15.9549	115
15.9623	93
15.9696	88
15.9770	99
15.9844	115
15.9918	118
15.9992	93
16.0066	86
16.0140	97
16.0214	103
16.0288	100
16.0362	101
16.0436	100
16.0510	92
16.0584	127
16.0658	98
16.0732	99
16.0806	89
16.0880	100
16.0954	108
16.1028	93
16.1102	108
16.1176	87
16.1249	91
16.1323	105
16.1397	111
16.1471	116
16.1545	94
16.1619	110
16.1693	127
16.1767	101
16.1841	116
16.1915	124
16.1989	108
16.2063	108
16.2137	104
16.2211	122
16.2285	130
16.2359	84
16.2433	101
16.2507	109
16.2581	99
16.2655	85
16.2729	104
16.2802	104
16.2876	121
16.2950	112
16.3024	104
16.3098	83
16.3172	128
16.3246	110
16.3320	104
16.3394	117
16.3468	99
16.3542	110
16.3616	110
16.3690	118
16.3764	102
16.3838	106
16.3912	104
16.3986	91
16.4060	99
16.4134	118
16.4208	123
16.4282	98
16.4355	102
16.4429	113
16.4503	115
16.4577	115
16.4651	102
16.4725	119
16.4799	118
16.4873	105
16.4947	113
16.5021	109
16.5095	118
16.5169	134
16.5243	114
16.5317	119
16.5391	119
16.5465	106
16.5539	123
16.5613	131
16.5687	107
16.5761	111
16.5835	123
16.5908	109
16.5982	119
16.6056	139
16.6130	96
16.6204	125
16.6278	97
16.6352	108
16.6426	122
16.6500	136
16.6574	142
16.6648	115
16.6722	124
16.6796	137
16.6870	135
16.6944	131
16.7018	115
16.7092	139
16.7166	142
16.7240	143
16.7314	163
16.7388	155
16.7461	188
16.7535	169
16.7609	209
16.7683	197
16.7757	227
16.7831	296
16.7905	313
16.7979	355
16.8053	340
16.8127	433
16.8201	427
16.8275	471
16.8349	463
16.8423	464
16.8497	508
16.8571	504
16.8645	536
16.8719	489
16.8793	525
16.8867	537
16.8941	515
16.9014	482
16.9088	491
16.9162	490
16.9236	470
16.9310	493
16.9384	487
16.9458	461
16.9532	509
16.9606	557
16.9680	621
16.9754	731
16.9828	866
16.9902	1025
16.9976	1234
17.0050	1431
17.0124	1460
17.0198	1537
17.0272	1581
17.0346	1632
17.0420	1621
17.0494	1719
17.0567	1684
17.0641	1623
17.0715	1599
17.0789	1434
17.0863	1377
17.0937	1261
17.1011	1151
17.1085	1054
17.1159	947
17.1233	856
17.1307	784
17.1381	694
17.1455	645
17.1529	561
17.1603	480
17.1677	464
17.1751	426
17.1825	363
17.1899	317
17.1973	250
17.2047	196
17.2120	220
17.2194	213
17.2268	214
17.2342	178
17.2416	150
17.2490	148
17.2564	181
17.2638	129
17.2712	130
17.2786	139
17.2860	122
17.2934	140
17.3008	127
17.3082	132
17.3156	141
17.3230	141
17.3304	140
17.3378	122
17.3452	110
17.3526	130
17.3600	125
17.3674	136
17.3747	116
17.3821	132
17.3895	140
17.3969	123
17.4043	110
17.4117	138
17.4191	126
17.4265	126
17.4339	118
17.4413	128
17.4487	113
17.4561	121
17.4635	132
17.4709	124
17.4783	124
17.4857	112
17.4931	138
17.5005	131
17.5079	119
17.5153	121
17.5227	140
17.5300	119
17.5374	138
17.5448	119
17.5522	123
17.5596	131
17.5670	147
17.5744	173
17.5818	158
17.5892	170
17.5966	185
17.6040	183
17.6114	183
17.6188	191
17.6262	213
17.6336	202
17.6410	202
17.6484	223
17.6558	255
17.6632	238
17.6706	262
17.6780	225
17.6853	244
17.6927	225
17.7001	233
17.7075	241
17.7149	205
17.7223	201
17.7297	244
17.7371	210
17.7445	230
17.7519	253
17.7593	261
17.7667	293
17.7741	338
17.7815	396
17.7889	418
17.7963	448
17.8037	487
17.8111	531
17.8185	569
17.8259	613
17.8333	670
17.8406	722
17.8480	710
17.8554	719
17.8628	770
17.8702	765
17.8776	791
17.8850	788
17.8924	801
17.8998	823
17.9072	780
17.9146	733
17.9220	741
17.9294	683
17.9368	676
17.9442	630
17.9516	602
17.9590	530
17.9664	527
17.9738	471
17.9812	441
17.9886	408
17.9959	374
18.0033	336
18.0107	325
18.0181	270
18.0255	283
18.0329	239
18.0403	236
18.0477	194
18.0551	183
18.0625	183
18.0699	138
18.0773	168
18.0847	154
18.0921	162
18.0995	136
18.1069	136
18.1143	134
18.1217	125
18.1291	117
18.1365	172
18.1439	147
18.1512	151
18.1586	138
18.1660	174
18.1734	141
18.1808	115
18.1882	131
18.1956	122
18.2030	116
18.2104	129
18.2178	143
18.2252	143
18.2326	113
18.2400	130
18.2474	120
18.2548	110
18.2622	126
18.2696	120
18.2770	151
18.2844	147
18.2918	127
18.2992	115
18.3065	130
18.3139	130
18.3213	153
18.3287	136
18.3361	145
18.3435	147
18.3509	142
18.3583	151
18.3657	128
18.3731	138
18.3805	152
18.3879	155
18.3953	138
18.4027	157
18.4101	144
18.4175	149
18.4249	139
18.4323	157
18.4397	159
18.4471	173
18.4545	183
18.4618	191
18.4692	210
18.4766	227
18.4840	209
18.4914	258
18.4988	301
18.5062	336
18.5136	462
18.5210	487
18.5284	535
18.5358	618
18.5432	695
18.5506	794
18.5580	835
18.5654	914
18.5728	976
18.5802	1128
18.5876	1165
18.5950	1223
18.6024	1381
18.6098	1351
18.6171	1528
18.6245	1520
18.6319	1589
18.6393	1638
18.6467	1577
18.6541	1578
18.6615	1518
18.6689	1437
18.6763	1390
18.6837	1319
18.6911	1251
18.6985	1174
18.7059	1028
18.7133	931
18.7207	866
18.7281	778
18.7355	815
18.7429	729
18.7503	711
18.7577	619
18.7651	589
18.7724	601
18.7798	534
18.7872	474
18.7946	437
18.8020	482
18.8094	402
18.8168	336
18.8242	317
18.8316	275
18.8390	310
18.8464	315
18.8538	294
18.8612	289
18.8686	303
18.8760	312
18.8834	357
18.8908	411
18.8982	405
18.9056	438
18.9130	519
18.9204	553
18.9278	574
18.9351	557
18.9425	561
18.9499	594
18.9573	598
18.9647	586
18.9721	598
18.9795	599
18.9869	575
18.9943	577
19.0017	571
19.0091	555
19.0165	508
19.0239	528
19.0313	459
19.0387	453
19.0461	426
19.0535	374
19.0609	352
19.0683	342
19.0757	348
19.0831	302
19.0904	301
19.0978	251
19.1052	250
19.1126	237
19.1200	224
19.1274	209
19.1348	195
19.1422	171
19.1496	156
19.1570	173
19.1644	147
19.1718	127
19.1792	151
19.1866	171
19.1940	160
19.2014	133
19.2088	103
19.2162	143
19.2236	141
19.2310	125
19.2384	137
19.2457	102
19.2531	129
19.2605	122
19.2679	105
19.2753	130
19.2827	132
19.2901	107
19.2975	129
19.3049	139
19.3123	131
19.3197	121
19.3271	125
19.3345	120
19.3419	146
19.3493	126
19.3567	129
19.3641	133
19.3715	160
19.3789	135
19.3863	174
19.3937	165
19.4010	183
19.4084	211
19.4158	221
19.4232	294
19.4306	262
19.4380	323
19.4454	313
19.4528	399
19.4602	367
19.4676	379
19.4750	402
19.4824	443
19.4898	435
19.4972	437
19.5046	466
19.5120	480
19.5194	462
19.5268	447
19.5342	479
19.5416	422
19.5490	386
19.5563	398
19.5637	365
19.5711	376
19.5785	357
19.5859	355
19.5933	332
19.6007	304
19.6081	297
19.6155	266
19.6229	245
19.6303	253
19.6377	238
19.6451	220
19.6525	209
19.6599	208
19.6673	223
19.6747	181
19.6821	192
19.6895	165
19.6969	175
19.7043	133
19.7116	139
19.7190	148
19.7264	139
19.7338	152
19.7412	124
19.7486	120
19.7560	115
19.7634	155
19.7708	122
19.7782	124
19.7856	118
19.7930	127
19.8004	118
19.8078	139
19.8152	135
19.8226	126
19.8300	146
19.8374	157
19.8448	125
19.8522	153
19.8596	132
19.8669	140
19.8743	116
19.8817	122
19.8891	128
19.8965	144
19.9039	124
19.9113	124
19.9187	162
19.9261	125
19.9335	125
19.9409	122
19.9483	139
19.9557	122
19.9631	131
19.9705	125
19.9779	132
19.9853	150
19.9927	135
20.0001	107
20.0075	125
20.0149	129
20.0222	131
20.0296	131
20.0370	121
20.0444	122
20.0518	118
20.0592	125
20.0666	116
20.0740	121
20.0814	124
20.0888	130
20.0962	125
20.1036	128
20.1110	125
20.1184	112
20.1258	135
20.1332	126
20.1406	138
20.1480	131
20.1554	126
20.1628	128
20.1702	116
20.1775	136
20.1849	126
20.1923	125
20.1997	135
20.2071	139
20.2145	136
20.2219	132
20.2293	141
20.2367	149
20.2441	121
20.2515	163
20.2589	136
20.2663	184
20.2737	172
20.2811	170
20.2885	162
20.2959	183
20.3033	181
20.3107	218
20.3181	189
20.3255	203
20.3328	188
20.3402	189
20.3476	198
20.3550	202
20.3624	221
20.3698	202
20.3772	212
20.3846	214
20.3920	235
20.3994	220
20.4068	239
20.4142	230
20.4216	221
20.4290	242
20.4364	279
20.4438	299
20.4512	303
20.4586	447
20.4660	564
20.4734	688
20.4808	870
20.4882	1059
20.4955	1073
20.5029	1231
20.5103	1215
20.5177	1305
20.5251	1378
20.5325	1440
20.5399	1505
20.5473	1596
20.5547	1558
20.5621	1496
20.5695	1450
20.5769	1462
20.5843	1387
20.5917	1376
20.5991	1242
20.6065	1060
20.6139	1022
20.6213	1029
20.6287	959
20.6361	804
20.6435	806
20.6508	713
20.6582	646
20.6656	590
20.6730	549
20.6804	474
20.6878	435
20.6952	388
20.7026	347
20.7100	296
20.7174	303
20.7248	316
20.7322	278
20.7396	290
20.7470	274
20.7544	265
20.7618	221
20.7692	247
20.7766	242
20.7840	232
20.7914	251
20.7988	255
20.8061	273
20.8135	272
20.8209	266
20.8283	267
20.8357	263
20.8431	261
20.8505	285
20.8579	315
20.8653	274
20.8727	307
20.8801	301
20.8875	309
20.8949	367
20.9023	390
20.9097	438
20.9171	432
20.9245	524
20.9319	526
20.9393	576
20.9467	631
20.9541	638
20.9614	753
20.9688	769
20.9762	804
20.9836	836
20.9910	873
20.9984	948
21.0058	948
21.0132	857
21.0206	911
21.0280	867
21.0354	880
21.0428	903
21.0502	866
21.0576	806
21.0650	757
21.0724	730
21.0798	637
21.0872	580
21.0946	524
21.1020	486
21.1094	421
21.1167	432
21.1241	396
21.1315	333
21.1389	286
21.1463	271
21.1537	260
21.1611	250
21.1685	235
21.1759	233
21.1833	243
21.1907	257
21.1981	213
21.2055	219
21.2129	214
21.2203	205
21.2277	215
21.2351	197
21.2425	238
21.2499	204
21.2573	203
21.2647	215
21.2720	205
21.2794	220
21.2868	203
21.2942	207
21.3016	232
21.3090	203
21.3164	213
21.3238	225
21.3312	236
21.3386	229
21.3460	209
21.3534	267
21.3608	263
21.3682	269
21.3756	249
21.3830	265
21.3904	260
21.3978	291
21.4052	276
21.4126	301
21.4200	299
21.4273	350
21.4347	393
21.4421	472
21.4495	600
21.4569	688
21.4643	766
21.4717	980
21.4791	1106
21.4865	1239
21.4939	1364
21.5013	1491
21.5087	1503
21.5161	1617
21.5235	1618
21.5309	1568
21.5383	1675
21.5457	1691
21.5531	1752
21.5605	1791
21.5679	1791
21.5753	1814
21.5826	1783
21.5900	1699
21.5974	1548
21.6048	1413
21.6122	1284
21.6196	1294
21.6270	1249
21.6344	1166
21.6418	1103
21.6492	1097
21.6566	1015
21.6640	992
21.6714	985
21.6788	949
21.6862	932
21.6936	895
21.7010	824
21.7084	752
21.7158	706
21.7232	754
21.7306	740
21.7379	741
21.7453	731
21.7527	705
21.7601	678
21.7675	613
21.7749	655
21.7823	716
21.7897	621
21.7971	603
21.8045	647
21.8119	625
21.8193	572
21.8267	680
21.8341	627
21.8415	651
21.8489	697
21.8563	766
21.8637	799
21.8711	882
21.8785	1015
21.8859	1174
21.8932	1383
21.9006	1695
21.9080	2017
21.9154	2524
21.9228	3100
21.9302	3738
21.9376	4246
21.9450	4872
21.9524	5197
21.9598	5475
21.9672	5819
21.9746	6269
21.9820	6420
21.9894	6476
21.9968	6832
22.0042	6665
22.0116	6596
22.0190	6380
22.0264	6338
22.0338	6191
22.0412	6032
22.0485	5598
22.0559	5273
22.0633	5024
22.0707	4686
22.0781	4311
22.0855	3965
22.0929	3615
22.1003	3215
22.1077	2912
22.1151	2578
22.1225	2328
22.1299	1995
22.1373	1779
22.1447	1507
22.1521	1284
22.1595	1151
22.1669	958
22.1743	876
22.1817	762
22.1891	654
22.1965	599
22.2039	504
22.2112	439
22.2186	435
22.2260	388
22.2334	375
22.2408	381
22.2482	332
22.2556	362
22.2630	333
22.2704	303
22.2778	330
22.2852	309
22.2926	291
22.3000	279
22.3074	271
22.3148	283
22.3222	226
22.3296	242
22.3370	304
22.3444	244
22.3518	255
22.3592	272
22.3665	231
22.3739	243
22.3813	275
22.3887	228
22.3961	227
22.4035	205
22.4109	239
22.4183	260
22.4257	254
22.4331	208
22.4405	211
22.4479	213
22.4553	201
22.4627	191
22.4701	192
22.4775	217
22.4849	231
22.4923	209
22.4997	224
22.5071	201
22.5145	206
22.5218	182
22.5292	219
22.5366	182
22.5440	182
22.5514	179
22.5588	211
22.5662	215
22.5736	209
22.5810	208
22.5884	199
22.5958	185
22.6032	186
22.6106	199
22.6180	198
22.6254	187
22.6328	202
22.6402	212
22.6476	196
22.6550	214
22.6624	207
22.6698	209
22.6771	231
22.6845	209
22.6919	230
22.6993	255
22.7067	269
22.7141	355
22.7215	325
22.7289	340
22.7363	388
22.7437	404
22.7511	375
22.7585	413
22.7659	484
22.7733	495
22.7807	504
22.7881	534
22.7955	506
22.8029	489
22.8103	539
22.8177	555
22.8251	490
22.8324	494
22.8398	530
22.8472	469
22.8546	461
22.8620	497
22.8694	477
22.8768	437
22.8842	409
22.8916	423
22.8990	376
22.9064	355
22.9138	357
22.9212	323
22.9286	314
22.9360	308
22.9434	279
22.9508	273
22.9582	267
22.9656	253
22.9730	228
22.9804	222
22.9877	222
22.9951	216
23.0025	218
23.0099	213
23.0173	209
23.0247	186
23.0321	192
23.0395	203
23.0469	191
23.0543	193
23.0617	150
23.0691	172
23.0765	174
23.0839	186
23.0913	192
23.0987	170
23.1061	172
23.1135	183
23.1209	188
23.1283	175
23.1357	191
23.1430	177
23.1504	161
23.1578	185
23.1652	175
23.1726	160
23.1800	184
23.1874	162
23.1948	184
23.2022	190
23.2096	179
23.2170	161
23.2244	181
23.2318	173
23.2392	199
23.2466	174
23.2540	170
23.2614	189
23.2688	172
23.2762	173
23.2836	168
23.2910	171
23.2983	177
23.3057	167
23.3131	187
23.3205	211
23.3279	165
23.3353	153
23.3427	171
23.3501	173
23.3575	168
23.3649	186
23.3723	187
23.3797	207
23.3871	201
23.3945	201
23.4019	235
23.4093	242
23.4167	252
23.4241	285
23.4315	312
23.4389	362
23.4463	435
23.4536	452
23.4610	509
23.4684	532
23.4758	531
23.4832	667
23.4906	654
23.4980	745
23.5054	778
23.5128	820
23.5202	780
23.5276	817
23.5350	763
23.5424	718
23.5498	709
23.5572	714
23.5646	702
23.5720	612
23.5794	612
23.5868	597
23.5942	551
23.6016	453
23.6089	440
23.6163	414
23.6237	398
23.6311	348
23.6385	333
23.6459	319
23.6533	288
23.6607	270
23.6681	236
23.6755	241
23.6829	251
23.6903	241
23.6977	190
23.7051	184
23.7125	203
23.7199	211
23.7273	198
23.7347	200
23.7421	184
23.7495	183
23.7569	188
23.7643	198
23.7716	188
23.7790	190
23.7864	187
23.7938	192
23.8012	193
23.8086	199
23.8160	189
23.8234	201
23.8308	203
23.8382	179
23.8456	189
23.8530	203
23.8604	224
23.8678	190
23.8752	209
23.8826	267
23.8900	255
23.8974	248
23.9048	287
23.9122	337
23.9196	341
23.9269	395
23.9343	445
23.9417	510
23.9491	576
23.9565	596
23.9639	731
23.9713	765
23.9787	851
23.9861	973
23.9935	1040
24.0009	1093
24.0083	1111
24.0157	1240
24.0231	1330
24.0305	1369
24.0379	1424
24.0453	1459
24.0527	1363
24.0601	1343
24.0675	1329
24.0749	1220
24.0822	1263
24.0896	1158
24.0970	1150
24.1044	1013
24.1118	1002
24.1192	899
24.1266	765
24.1340	769
24.1414	676
24.1488	634
24.1562	572
24.1636	530
24.1710	481
24.1784	452
24.1858	395
24.1932	356
24.2006	372
24.2080	359
24.2154	350
24.2228	334
24.2302	335
24.2375	341
24.2449	321
24.2523	341
24.2597	401
24.2671	421
24.2745	452
24.2819	462
24.2893	486
24.2967	501
24.3041	488
24.3115	505
24.3189	509
24.3263	523
24.3337	525
24.3411	532
24.3485	577
24.3559	628
24.3633	675
24.3707	686
24.3781	775
24.3855	805
24.3928	784
24.4002	813
24.4076	804
24.4150	849
24.4224	877
24.4298	906
24.4372	951
24.4446	992
24.4520	1062
24.4594	1005
24.4668	1005
24.4742	915
24.4816	902
24.4890	857
24.4964	817
24.5038	729
24.5112	673
24.5186	658
24.5260	620
24.5334	540
24.5408	528
24.5481	461
24.5555	379
24.5629	400
24.5703	315
24.5777	328
24.5851	284
24.5925	265
24.5999	298
24.6073	243
24.6147	258
24.6221	229
24.6295	227
24.6369	228
24.6443	254
24.6517	231
24.6591	238
24.6665	246
24.6739	238
24.6813	264
24.6887	263
24.6961	261
24.7034	258
24.7108	313
24.7182	303
24.7256	306
24.7330	328
24.7404	351
24.7478	422
24.7552	418
24.7626	421
24.7700	436
24.7774	438
24.7848	449
24.7922	500
24.7996	486
24.8070	500
24.8144	526
24.8218	513
24.8292	558
24.8366	591
24.8440	538
24.8514	583
24.8587	650
24.8661	614
24.8735	594
24.8809	630
24.8883	648
24.8957	622
24.9031	588
24.9105	587
24.9179	581
24.9253	559
24.9327	601
24.9401	680
24.9475	572
24.9549	562
24.9623	673
24.9697	715
24.9771	691
24.9845	745
24.9919	757
24.9993	695
25.0067	768
25.0140	711
25.0214	666
25.0288	669
25.0362	643
25.0436	683
25.0510	632
25.0584	635
25.0658	629
25.0732	604
25.0806	595
25.0880	501
25.0954	472
25.1028	511
25.1102	490
25.1176	419
25.1250	436
25.1324	390
25.1398	395
25.1472	353
25.1546	367
25.1620	326
25.1693	318
25.1767	306
25.1841	293
25.1915	281
25.1989	282
25.2063	240
25.2137	269
25.2211	250
25.2285	238
25.2359	227
25.2433	229
25.2507	213
25.2581	222
25.2655	226
25.2729	195
25.2803	196
25.2877	234
25.2951	233
25.3025	217
25.3099	220
25.3173	216
25.3247	237
25.3320	235
25.3394	211
25.3468	216
25.3542	248
25.3616	230
25.3690	243
25.3764	249
25.3838	266
25.3912	274
25.3986	294
25.4060	330
25.4134	362
25.4208	434
25.4282	492
25.4356	595
25.4430	651
25.4504	692
25.4578	815
25.4652	893
25.4726	915
25.4800	1056
25.4873	1078
25.4947	1118
25.5021	1267
25.5095	1316
25.5169	1356
25.5243	1426
25.5317	1447
25.5391	1529
25.5465	1592
25.5539	1694
25.5613	1792
25.5687	1828
25.5761	1847
25.5835	1959
25.5909	1900
25.5983	1980
25.6057	1947
25.6131	1756
25.6205	1725
25.6279	1615
25.6353	1610
25.6426	1542
25.6500	1574
25.6574	1552
25.6648	1481
25.6722	1372
25.6796	1246
25.6870	1108
25.6944	1033
25.7018	980
25.7092	908
25.7166	874
25.7240	847
25.7314	782
25.7388	702
25.7462	616
25.7536	615
25.7610	555
25.7684	507
25.7758	495
25.7832	480
25.7906	431
25.7979	432
25.8053	435
25.8127	465
25.8201	410
25.8275	453
25.8349	464
25.8423	484
25.8497	489
25.8571	484
25.8645	516
25.8719	492
25.8793	476
25.8867	493
25.8941	483
25.9015	497
25.9089	426
25.9163	453
25.9237	437
25.9311	424
25.9385	369
25.9459	377
25.9532	373
25.9606	353
25.9680	316
25.9754	302
25.9828	318
25.9902	312
25.9976	272
26.0050	316
26.0124	283
26.0198	281
26.0272	263
26.0346	254
26.0420	269
26.0494	233
26.0568	241
26.0642	243
26.0716	238
26.0790	207
26.0864	213
26.0938	215
26.1012	246
26.1085	212
26.1159	191
26.1233	215
26.1307	207
26.1381	216
26.1455	213
26.1529	171
26.1603	216
26.1677	202
26.1751	222
26.1825	222
26.1899	192
26.1973	208
26.2047	240
26.2121	205
26.2195	183
26.2269	206
26.2343	214
26.2417	209
26.2491	199
26.2565	216
26.2638	261
26.2712	233
26.2786	233
26.2860	248
26.2934	201
26.3008	226
26.3082	217
26.3156	214
26.3230	197
26.3304	224
26.3378	237
26.3452	241
26.3526	240
26.3600	235
26.3674	252
26.3748	264
26.3822	247
26.3896	272
26.3970	301
26.4044	302
26.4118	343
26.4191	334
26.4265	361
26.4339	476
26.4413	455
26.4487	541
26.4561	622
26.4635	708
26.4709	803
26.4783	903
26.4857	1032
26.4931	1141
26.5005	1423
26.5079	1644
26.5153	1889
26.5227	2117
26.5301	2224
26.5375	2388
26.5449	2575
26.5523	2751
26.5597	2941
26.5671	2873
26.5744	2991
26.5818	3039
26.5892	3053
26.5966	3004
26.6040	3003
26.6114	2873
26.6188	2779
26.6262	2577
26.6336	2546
26.6410	2314
26.6484	2175
26.6558	2055
26.6632	1760
26.6706	1575
26.6780	1459
26.6854	1316
26.6928	1251
26.7002	1033
26.7076	900
26.7150	837
26.7224	724
26.7297	626
26.7371	588
26.7445	520
26.7519	478
26.7593	438
26.7667	365
26.7741	378
26.7815	354
26.7889	334
26.7963	286
26.8037	298
26.8111	299
26.8185	271
26.8259	278
26.8333	258
26.8407	258
26.8481	259
26.8555	263
26.8629	242
26.8703	256
26.8777	227
26.8850	231
26.8924	234
26.8998	204
26.9072	210
26.9146	256
26.9220	221
26.9294	213
26.9368	202
26.9442	199
26.9516	225
26.9590	208
26.9664	202
26.9738	210
26.9812	214
26.9886	218
26.9960	191
27.0034	208
27.0108	229
27.0182	220
27.0256	195
27.0330	201
27.0404	222
27.0477	207
27.0551	198
27.0625	204
27.0699	192
27.0773	201
27.0847	201
27.0921	203
27.0995	187
27.1069	234
27.1143	176
27.1217	211
27.1291	159
27.1365	189
27.1439	196
27.1513	219
27.1587	199
27.1661	197
27.1735	202
27.1809	196
27.1883	205
27.1957	227
27.2030	188
27.2104	207
27.2178	211
27.2252	186
27.2326	216
27.2400	192
27.2474	211
27.2548	239
27.2622	241
27.2696	213
27.2770	220
27.2844	235
27.2918	237
27.2992	240
27.3066	256
27.3140	238
27.3214	250
27.3288	267
27.3362	272
27.3436	289
27.3510	318
27.3583	325
27.3657	312
27.3731	351
27.3805	404
27.3879	364
27.3953	453
27.4027	466
27.4101	597
27.4175	643
27.4249	796
27.4323	869
27.4397	1012
27.4471	1123
27.4545	1223
27.4619	1241
27.4693	1356
27.4767	1323
27.4841	1378
27.4915	1508
27.4989	1530
27.5063	1560
27.5136	1695
27.5210	1654
27.5284	1675
27.5358	1680
27.5432	1608
27.5506	1618
27.5580	1564
27.5654	1471
27.5728	1381
27.5802	1271
27.5876	1199
27.5950	1176
27.6024	1080
27.6098	934
27.6172	895
27.6246	878
27.6320	756
27.6394	723
27.6468	649
27.6542	593
27.6616	529
27.6689	455
27.6763	475
27.6837	428
27.6911	366
27.6985	389
27.7059	351
27.7133	338
27.7207	292
27.7281	301
27.7355	301
27.7429	287
27.7503	272
27.7577	282
27.7651	299
27.7725	244
27.7799	294
27.7873	265
27.7947	294
27.8021	281
27.8095	276
27.8169	270
27.8242	285
27.8316	281
27.8390	272
27.8464	316
27.8538	312
27.8612	336
27.8686	321
27.8760	291
27.8834	285
27.8908	327
27.8982	281
27.9056	316
27.9130	315
27.9204	304
27.9278	291
27.9352	318
27.9426	295
27.9500	338
27.9574	299
27.9648	331
27.9722	280
27.9795	267
27.9869	261
27.9943	269
28.0017	279
28.0091	253
28.0165	262
28.0239	243
28.0313	256
28.0387	273
28.0461	262
28.0535	270
28.0609	269
28.0683	257
28.0757	247
28.0831	259
28.0905	240
28.0979	254
28.1053	283
28.1127	243
28.1201	250
28.1275	268
28.1348	255
28.1422	204
28.1496	232
28.1570	237
28.1644	237
28.1718	219
28.1792	212
28.1866	201
28.1940	237
28.2014	206
28.2088	208
28.2162	224
28.2236	213
28.2310	215
28.2384	211
28.2458	217
28.2532	228
28.2606	213
28.2680	224
28.2754	232
28.2828	187
28.2901	206
28.2975	195
28.3049	213
28.3123	218
28.3197	202
28.3271	203
28.3345	196
28.3419	216
28.3493	215
28.3567	221
28.3641	221
28.3715	271
28.3789	253
28.3863	300
28.3937	310
28.4011	356
28.4085	378
28.4159	436
28.4233	444
28.4307	479
28.4381	527
28.4454	538
28.4528	583
28.4602	630
28.4676	677
28.4750	750
28.4824	729
28.4898	820
28.4972	793
28.5046	800
28.5120	717
28.5194	760
28.5268	738
28.5342	661
28.5416	733
28.5490	700
28.5564	688
28.5638	628
28.5712	600
28.5786	581
28.5860	500
28.5934	504
28.6008	407
28.6081	444
28.6155	419
28.6229	373
28.6303	360
28.6377	314
28.6451	284
28.6525	261
28.6599	249
28.6673	222
28.6747	238
28.6821	228
28.6895	191
28.6969	196
28.7043	190
28.7117	204
28.7191	198
28.7265	203
28.7339	175
28.7413	182
28.7487	174
28.7561	191
28.7634	180
28.7708	161
28.7782	172
28.7856	157
28.7930	162
28.8004	160
28.8078	169
28.8152	187
28.8226	177
28.8300	151
28.8374	173
28.8448	149
28.8522	157
28.8596	165
28.8670	183
28.8744	162
28.8818	177
28.8892	193
28.8966	190
28.9040	221
28.9114	199
28.9187	225
28.9261	194
28.9335	217
28.9409	240
28.9483	233
28.9557	250
28.9631	261
28.9705	305
28.9779	284
28.9853	354
28.9927	424
29.0001	385
29.0075	388
29.0149	409
29.0223	457
29.0297	466
29.0371	501
29.0445	513
29.0519	492
29.0593	546
29.0667	540
29.0740	520
29.0814	513
29.0888	477
29.0962	460
29.1036	432
29.1110	424
29.1184	429
29.1258	431
29.1332	370
29.1406	382
29.1480	337
29.1554	344
29.1628	277
29.1702	310
29.1776	236
29.1850	248
29.1924	218
29.1998	213
29.2072	199
29.2146	210
29.2220	174
29.2293	193
29.2367	192
29.2441	188
29.2515	157
29.2589	180
29.2663	145
29.2737	176
29.2811	194
29.2885	166
29.2959	165
29.3033	161
29.3107	149
29.3181	169
29.3255	147
29.3329	153
29.3403	169
29.3477	173
29.3551	153
29.3625	162
29.3699	161
29.3773	147
29.3846	148
29.3920	138
29.3994	161
29.4068	145
29.4142	179
29.4216	168
29.4290	173
29.4364	160
29.4438	161
29.4512	162
29.4586	159
29.4660	192
29.4734	172
29.4808	195
29.4882	171
29.4956	169
29.5030	163
29.5104	179
29.5178	165
29.5252	179
29.5326	168
29.5399	181
29.5473	166
29.5547	169
29.5621	189
29.5695	163
29.5769	164
29.5843	150
29.5917	180
29.5991	170
29.6065	187
29.6139	194
29.6213	157
29.6287	166
29.6361	183
29.6435	188
29.6509	151
29.6583	171
29.6657	147
29.6731	150
29.6805	141
29.6879	164
29.6952	179
29.7026	171
29.7100	152
29.7174	163
29.7248	191
29.7322	164
29.7396	158
29.7470	181
29.7544	185
29.7618	192
29.7692	163
29.7766	183
29.7840	178
29.7914	169
29.7988	158
29.8062	169
29.8136	170
29.8210	155
29.8284	151
29.8358	171
29.8432	138
29.8505	161
29.8579	179
29.8653	151
29.8727	160
29.8801	162
29.8875	154
29.8949	164
29.9023	136
29.9097	154
29.9171	147
29.9245	136
29.9319	145
29.9393	146
29.9467	144
29.9541	185
29.9615	153
29.9689	159
29.9763	157
29.9837	139
29.9911	166
29.9985	146
30.0058	157
30.0132	149
30.0206	141
30.0280	159
30.0354	165
30.0428	188
30.0502	149
30.0576	182
30.0650	191
30.0724	161
30.0798	156
30.0872	177
30.0946	174
30.1020	179
30.1094	202
30.1168	170
30.1242	184
30.1316	164
30.1390	197
30.1464	192
30.1538	167
30.1612	185
30.1685	165
30.1759	174
30.1833	180
30.1907	189
30.1981	189
30.2055	157
30.2129	186
30.2203	207
30.2277	180
30.2351	164
30.2425	184
30.2499	149
30.2573	175
30.2647	175
30.2721	149
30.2795	162
30.2869	178
30.2943	168
30.3017	194
30.3091	163
30.3165	167
30.3238	199
30.3312	185
30.3386	162
30.3460	174
30.3534	184
30.3608	187
30.3682	180
30.3756	156
30.3830	179
30.3904	169
30.3978	156
30.4052	209
30.4126	194
30.4200	176
30.4274	185
30.4348	190
30.4422	218
30.4496	191
30.4570	210
30.4644	192
30.4718	235
30.4791	234
30.4865	252
30.4939	238
30.5013	230
30.5087	237
30.5161	240
30.5235	218
30.5309	218
30.5383	240
30.5457	234
30.5531	236
30.5605	267
30.5679	242
30.5753	243
30.5827	232
30.5901	252
30.5975	240
30.6049	256
30.6123	249
30.6197	217
30.6271	221
30.6344	248
30.6418	216
30.6492	238
30.6566	211
30.6640	229
30.6714	240
30.6788	204
30.6862	211
30.6936	201
30.7010	208
30.7084	194
30.7158	207
30.7232	174
30.7306	183
30.7380	207
30.7454	185
30.7528	164
30.7602	195
30.7676	158
30.7750	179
30.7824	177
30.7897	169
30.7971	160
30.8045	153
30.8119	175
30.8193	155
30.8267	144
30.8341	136
30.8415	163
30.8489	145
30.8563	145
30.8637	152
30.8711	152
30.8785	120
30.8859	139
30.8933	133
30.9007	155
30.9081	138
30.9155	125
30.9229	156
30.9303	177
30.9377	125
30.9450	166
30.9524	145
30.9598	148
30.9672	144
30.9746	144
30.9820	166
30.9894	146
30.9968	126
31.0042	154
31.0116	160
31.0190	149
31.0264	129
31.0338	137
31.0412	135
31.0486	138
31.0560	140
31.0634	137
31.0708	155
31.0782	136
31.0856	138
31.0930	143
31.1003	125
31.1077	128
31.1151	124
31.1225	126
31.1299	134
31.1373	137
31.1447	144
31.1521	124
31.1595	139
31.1669	125
31.1743	140
31.1817	130
31.1891	145
31.1965	134
31.2039	162
31.2113	131
31.2187	124
31.2261	153
31.2335	133
31.2409	159
31.2483	124
31.2556	121
31.2630	136
31.2704	152
31.2778	141
31.2852	126
31.2926	151
31.3000	145
31.3074	157
31.3148	149
31.3222	137
31.3296	146
31.3370	179
31.3444	157
31.3518	165
31.3592	174
31.3666	161
31.3740	187
31.3814	199
31.3888	212
31.3962	219
31.4036	236
31.4109	236
31.4183	290
31.4257	257
31.4331	271
31.4405	306
31.4479	301
31.4553	291
31.4627	332
31.4701	341
31.4775	337
31.4849	364
31.4923	357
31.4997	321
31.5071	311
31.5145	309
31.5219	298
31.5293	333
31.5367	291
31.5441	312
31.5515	304
31.5589	281
31.5662	278
31.5736	297
31.5810	279
31.5884	276
31.5958	249
31.6032	256
31.6106	262
31.6180	246
31.6254	265
31.6328	282
31.6402	267
31.6476	233
31.6550	220
31.6624	235
31.6698	210
31.6772	218
31.6846	223
31.6920	206
31.6994	233
31.7068	196
31.7142	204
31.7215	223
31.7289	193
31.7363	185
31.7437	210
31.7511	191
31.7585	154
31.7659	176
31.7733	181
31.7807	150
31.7881	181
31.7955	180
31.8029	155
31.8103	149
31.8177	144
31.8251	153
31.8325	147
31.8399	130
31.8473	152
31.8547	159
31.8621	164
31.8695	150
31.8769	168
31.8842	151
31.8916	163
31.8990	190
31.9064	193
31.9138	177
31.9212	198
31.9286	189
31.9360	229
31.9434	210
31.9508	249
31.9582	260
31.9656	268
31.9730	273
31.9804	267
31.9878	254
31.9952	272
32.0026	258
32.0100	263
32.0174	249
32.0248	262
32.0322	245
32.0395	219
32.0469	271
32.0543	211
32.0617	201
32.0691	216
32.0765	205
32.0839	210
32.0913	211
32.0987	204
32.1061	206
32.1135	149
32.1209	173
32.1283	140
32.1357	161
32.1431	137
32.1505	152
32.1579	111
32.1653	139
32.1727	142
32.1801	139
32.1875	131
32.1948	158
32.2022	135
32.2096	138
32.2170	154
32.2244	128
32.2318	139
32.2392	138
32.2466	132
32.2540	123
32.2614	138
32.2688	137
32.2762	126
32.2836	109
32.2910	143
32.2984	126
32.3058	127
32.3132	141
32.3206	108
32.3280	110
32.3354	137
32.3428	124
32.3501	113
32.3575	111
32.3649	139
32.3723	104
32.3797	120
32.3871	135
32.3945	125
32.4019	113
32.4093	121
32.4167	136
32.4241	132
32.4315	132
32.4389	114
32.4463	130
32.4537	122
32.4611	143
32.4685	125
32.4759	129
32.4833	113
32.4907	136
32.4981	134
32.5054	129
32.5128	126
32.5202	132
32.5276	104
32.5350	112
32.5424	119
32.5498	119
32.5572	124
32.5646	107
32.5720	122
32.5794	112
32.5868	119
32.5942	109
32.6016	125
32.6090	125
32.6164	119
32.6238	121
32.6312	113
32.6386	141
32.6460	125
32.6534	138
32.6607	102
32.6681	137
32.6755	143
32.6829	116
32.6903	128
32.6977	111
32.7051	94
32.7125	124
32.7199	126
32.7273	125
32.7347	123
32.7421	131
32.7495	131
32.7569	127
32.7643	136
32.7717	122
32.7791	126
32.7865	126
32.7939	113
32.8013	120
32.8087	103
32.8160	113
32.8234	119
32.8308	133
32.8382	141
32.8456	143
32.8530	119
32.8604	130
32.8678	119
32.8752	133
32.8826	149
32.8900	134
32.8974	141
32.9048	150
32.9122	163
32.9196	159
32.9270	151
32.9344	176
32.9418	154
32.9492	154
32.9566	201
32.9640	150
32.9713	163
32.9787	147
32.9861	155
32.9935	149
33.0009	143
33.0083	162
33.0157	144
33.0231	163
33.0305	136
33.0379	139
33.0453	144
33.0527	130
33.0601	136
33.0675	126
33.0749	143
33.0823	125
33.0897	135
33.0971	120
33.1045	118
33.1119	138
33.1193	117
33.1266	142
33.1340	116
33.1414	145
33.1488	108
33.1562	149
33.1636	135
33.1710	125
33.1784	136
33.1858	143
33.1932	124
33.2006	112
33.2080	123
33.2154	137
33.2228	133
33.2302	115
33.2376	128
33.2450	127
33.2524	142
33.2598	144
33.2672	155
33.2746	122
33.2819	163
33.2893	162
33.2967	143
33.3041	160
33.3115	156
33.3189	151
33.3263	156
33.3337	146
33.3411	175
33.3485	150
33.3559	173
33.3633	195
33.3707	178
33.3781	164
33.3855	167
33.3929	144
33.4003	182
33.4077	177
33.4151	212
33.4225	192
33.4299	170
33.4373	175
33.4446	192
33.4520	188
33.4594	169
33.4668	186
33.4742	185
33.4816	175
33.4890	229
33.4964	242
33.5038	254
33.5112	281
33.5186	318
33.5260	361
33.5334	383
33.5408	399
33.5482	421
33.5556	519
33.5630	490
33.5704	467
33.5778	477
33.5852	452
33.5926	472
33.5999	481
33.6073	471
33.6147	516
33.6221	553
33.6295	544
33.6369	585
33.6443	588
33.6517	573
33.6591	550
33.6665	573
33.6739	527
33.6813	503
33.6887	477
33.6961	457
33.7035	400
33.7109	396
33.7183	327
33.7257	319
33.7331	352
33.7405	311
33.7479	334
33.7552	313
33.7626	261
33.7700	268
33.7774	216
33.7848	214
33.7922	200
33.7996	170
33.8070	190
33.8144	182
33.8218	173
33.8292	181
33.8366	154
33.8440	152
33.8514	146
33.8588	131
33.8662	130
33.8736	148
33.8810	130
33.8884	150
33.8958	132
33.9032	147
33.9105	124
33.9179	131
33.9253	147
33.9327	140
33.9401	156
33.9475	158
33.9549	121
33.9623	177
33.9697	139
33.9771	150
33.9845	156
33.9919	161
33.9993	152
34.0067	172
34.0141	179
34.0215	167
34.0289	176
34.0363	166
34.0437	150
34.0511	169
34.0585	208
34.0658	195
34.0732	189
34.0806	202
34.0880	219
34.0954	191
34.1028	198
34.1102	182
34.1176	221
34.1250	183
34.1324	180
34.1398	183
34.1472	194
34.1546	189
34.1620	185
34.1694	158
34.1768	182
34.1842	168
34.1916	179
34.1990	163
34.2064	169
34.2138	177
34.2211	169
34.2285	164
34.2359	137
34.2433	148
34.2507	148
34.2581	150
34.2655	138
34.2729	169
34.2803	129
34.2877	121
34.2951	127
34.3025	114
34.3099	121
34.3173	130
34.3247	142
34.3321	127
34.3395	134
34.3469	109
34.3543	134
34.3617	121
34.3691	118
34.3764	128
34.3838	97
34.3912	120
34.3986	108
34.4060	131
34.4134	120
34.4208	108
34.4282	123
34.4356	119
34.4430	128
34.4504	112
34.4578	113
34.4652	109
34.4726	113
34.4800	130
34.4874	110
34.4948	109
34.5022	108
34.5096	122
34.5170	113
34.5244	137
34.5317	97
34.5391	126
34.5465	128
34.5539	119
34.5613	120
34.5687	123
34.5761	121
34.5835	116
34.5909	134
34.5983	144
34.6057	107
34.6131	122
34.6205	122
34.6279	119
34.6353	138
34.6427	114
34.6501	120
34.6575	118
34.6649	128
34.6723	134
34.6797	143
34.6870	117
34.6944	119
34.7018	118
34.7092	134
34.7166	123
34.7240	119
34.7314	127
34.7388	124
34.7462	117
34.7536	122
34.7610	118
34.7684	129
34.7758	130
34.7832	114
34.7906	122
34.7980	122
34.8054	109
34.8128	119
34.8202	129
34.8276	120
34.8350	123
34.8423	109
34.8497	131
34.8571	133
34.8645	116
34.8719	107
34.8793	134
34.8867	112
34.8941	134
34.9015	121
34.9089	127
34.9163	141
34.9237	124
34.9311	145
34.9385	165
34.9459	136
34.9533	157
34.9607	150
34.9681	198
34.9755	158
34.9829	162
34.9903	167
34.9977	194
35.0050	163
35.0124	193
35.0198	193
35.0272	178
35.0346	166
35.0420	170
35.0494	176
35.0568	204
35.0642	167
35.0716	205
35.0790	230
35.0864	197
35.0938	172
35.1012	191
35.1086	196
35.1160	174
35.1234	184
35.1308	185
35.1382	205
35.1456	163
35.1530	211
35.1603	179
35.1677	218
35.1751	213
35.1825	194
35.1899	193
35.1973	201
35.2047	219
35.2121	222
35.2195	182
35.2269	225
35.2343	229
35.2417	193
35.2491	217
35.2565	201
35.2639	209
35.2713	212
35.2787	180
35.2861	210
35.2935	189
35.3009	217
35.3083	197
35.3156	178
35.3230	179
35.3304	192
35.3378	183
35.3452	180
35.3526	156
35.3600	183
35.3674	168
35.3748	159
35.3822	160
35.3896	143
35.3970	139
35.4044	143
35.4118	139
35.4192	155
35.4266	150
35.4340	168
35.4414	150
35.4488	155
35.4562	178
35.4636	174
35.4709	167
35.4783	206
35.4857	192
35.4931	203
35.5005	202
35.5079	253
35.5153	237
35.5227	250
35.5301	252
35.5375	254
35.5449	233
35.5523	237
35.5597	257
35.5671	224
35.5745	233
35.5819	215
35.5893	226
35.5967	209
35.6041	217
35.6115	225
35.6189	218
35.6262	197
35.6336	208
35.6410	203
35.6484	169
35.6558	161
35.6632	174
35.6706	180
35.6780	153
35.6854	145
35.6928	174
35.7002	133
35.7076	130
35.7150	159
35.7224	150
35.7298	121
35.7372	144
35.7446	139
35.7520	142
35.7594	150
35.7668	144
35.7742	148
35.7815	132
35.7889	147
35.7963	135
35.8037	136
35.8111	133
35.8185	140
35.8259	150
35.8333	166
35.8407	144
35.8481	153
35.8555	141
35.8629	160
35.8703	171
35.8777	162
35.8851	162
35.8925	171
35.8999	180
35.9073	187
35.9147	167
35.9221	197
35.9295	187
35.9368	164
35.9442	202
35.9516	185
35.9590	200
35.9664	190
35.9738	200
35.9812	232
35.9886	246
35.9960	244
36.0034	278
36.0108	315
36.0182	316
36.0256	382
36.0330	368
36.0404	431
36.0478	454
36.0552	453
36.0626	450
36.0700	402
36.0774	438
36.0848	421
36.0921	413
36.0995	445
36.1069	444
36.1143	475
36.1217	498
36.1291	528
36.1365	485
36.1439	500
36.1513	526
36.1587	502
36.1661	480
36.1735	446
36.1809	422
36.1883	470
36.1957	442
36.2031	455
36.2105	476
36.2179	480
36.2253	476
36.2327	463
36.2401	410
36.2474	443
36.2548	385
36.2622	347
36.2696	341
36.2770	321
36.2844	335
36.2918	287
36.2992	315
36.3066	302
36.3140	290
36.3214	314
36.3288	290
36.3362	309
36.3436	292
36.3510	284
36.3584	258
36.3658	276
36.3732	288
36.3806	285
36.3880	299
36.3954	263
36.4027	292
36.4101	287
36.4175	282
36.4249	273
36.4323	276
36.4397	262
36.4471	249
36.4545	267
36.4619	230
36.4693	241
36.4767	240
36.4841	201
36.4915	216
36.4989	250
36.5063	203
36.5137	209
36.5211	216
36.5285	211
36.5359	182
36.5433	168
36.5507	159
36.5580	168
36.5654	138
36.5728	159
36.5802	132
36.5876	150
36.5950	173
36.6024	135
36.6098	150
36.6172	133
36.6246	147
36.6320	121
36.6394	134
36.6468	158
36.6542	152
36.6616	129
36.6690	151
36.6764	120
36.6838	152
36.6912	131
36.6986	134
36.7060	120
36.7134	145
36.7207	123
36.7281	144
36.7355	153
36.7429	123
36.7503	114
36.7577	143
36.7651	137
36.7725	130
36.7799	125
36.7873	116
36.7947	122
36.8021	153
36.8095	114
36.8169	108
36.8243	113
36.8317	142
36.8391	130
36.8465	124
36.8539	121
36.8613	102
36.8687	121
36.8760	116
36.8834	131
36.8908	138
36.8982	111
36.9056	129
36.9130	95
36.9204	119
36.9278	124
36.9352	136
36.9426	112
36.9500	121
36.9574	101
36.9648	123
36.9722	122
36.9796	117
36.9870	147
36.9944	128
37.0018	148
37.0092	138
37.0166	127
37.0240	120
37.0313	104
37.0387	128
37.0461	129
37.0535	113
37.0609	126
37.0683	122
37.0757	127
37.0831	123
37.0905	118
37.0979	119
37.1053	156
37.1127	160
37.1201	146
37.1275	143
37.1349	138
37.1423	142
37.1497	143
37.1571	157
37.1645	163
37.1719	148
37.1793	173
37.1866	154
37.1940	178
37.2014	176
37.2088	173
37.2162	170
37.2236	179
37.2310	173
37.2384	164
37.2458	185
37.2532	195
37.2606	171
37.2680	184
37.2754	189
37.2828	162
37.2902	178
37.2976	166
37.3050	174
37.3124	154
37.3198	143
37.3272	160
37.3346	145
37.3419	129
37.3493	160
37.3567	140
37.3641	157
37.3715	127
37.3789	140
37.3863	136
37.3937	131
37.4011	127
37.4085	131
37.4159	121
37.4233	111
37.4307	139
37.4381	119
37.4455	111
37.4529	145
37.4603	118
37.4677	142
37.4751	152
37.4825	143
37.4899	150
37.4972	136
37.5046	119
37.5120	105
37.5194	127
37.5268	116
37.5342	129
37.5416	142
37.5490	130
37.5564	122
37.5638	124
37.5712	139
37.5786	157
37.5860	143
37.5934	166
37.6008	151
37.6082	168
37.6156	165
37.6230	183
37.6304	200
37.6378	195
37.6452	209
37.6525	203
37.6599	219
37.6673	201
37.6747	238
37.6821	252
37.6895	248
37.6969	250
37.7043	285
37.7117	246
37.7191	266
37.7265	267
37.7339	275
37.7413	271
37.7487	268
37.7561	281
37.7635	289
37.7709	271
37.7783	259
37.7857	259
37.7931	295
37.8005	274
37.8078	261
37.8152	267
37.8226	246
37.8300	222
37.8374	218
37.8448	213
37.8522	223
37.8596	236
37.8670	224
37.8744	202
37.8818	173
37.8892	196
37.8966	159
37.9040	201
37.9114	165
37.9188	171
37.9262	134
37.9336	149
37.9410	158
37.9484	153
37.9558	128
37.9631	135
37.9705	130
37.9779	138
37.9853	142
37.9927	142
38.0001	140
38.0075	137
38.0149	140
38.0223	113
38.0297	137
38.0371	153
38.0445	159
38.0519	137
38.0593	146
38.0667	144
38.0741	152
38.0815	156
38.0889	136
38.0963	131
38.1037	127
38.1111	127
38.1184	128
38.1258	109
38.1332	143
38.1406	97
38.1480	134
38.1554	140
38.1628	151
38.1702	124
38.1776	120
38.1850	119
38.1924	117
38.1998	145
38.2072	115
38.2146	160
38.2220	128
38.2294	135
38.2368	138
38.2442	137
38.2516	139
38.2590	152
38.2664	142
38.2738	144
38.2811	174
38.2885	150
38.2959	151
38.3033	156
38.3107	186
38.3181	214
38.3255	165
38.3329	176
38.3403	216
38.3477	210
38.3551	191
38.3625	200
38.3699	205
38.3773	192
38.3847	205
38.3921	231
38.3995	197
38.4069	202
38.4143	202
38.4217	200
38.4291	176
38.4364	203
38.4438	182
38.4512	205
38.4586	191
38.4660	204
38.4734	198
38.4808	181
38.4882	200
38.4956	201
38.5030	206
38.5104	196
38.5178	187
38.5252	203
38.5326	192
38.5400	207
38.5474	204
38.5548	174
38.5622	169
38.5696	176
38.5770	192
38.5844	208
38.5917	193
38.5991	168
38.6065	174
38.6139	184
38.6213	176
38.6287	165
38.6361	147
38.6435	153
38.6509	198
38.6583	158
38.6657	196
38.6731	158
38.6805	142
38.6879	175
38.6953	139
38.7027	131
38.7101	151
38.7175	159
38.7249	136
38.7323	138
38.7397	140
38.7470	126
38.7544	125
38.7618	130
38.7692	134
38.7766	122
38.7840	149
38.7914	132
38.7988	141
38.8062	136
38.8136	135
38.8210	140
38.8284	121
38.8358	127
38.8432	122
38.8506	130
38.8580	114
38.8654	143
38.8728	146
38.8802	146
38.8876	134
38.8950	148
38.9023	118
38.9097	150
38.9171	137
38.9245	125
38.9319	126
38.9393	133
38.9467	136
38.9541	125
38.9615	126
38.9689	140
38.9763	132
38.9837	156
38.9911	130
38.9985	130
39.0059	129
39.0133	139
39.0207	134
39.0281	138
39.0355	122
39.0429	137
39.0503	149
39.0576	143
39.0650	147
39.0724	161
39.0798	143
39.0872	134
39.0946	119
39.1020	134
39.1094	147
39.1168	120
39.1242	132
39.1316	150
39.1390	147
39.1464	145
39.1538	142
39.1612	191
39.1686	143
39.1760	167
39.1834	157
39.1908	169
39.1982	141
39.2056	160
39.2129	183
39.2203	176
39.2277	209
39.2351	207
39.2425	222
39.2499	261
39.2573	289
39.2647	319
39.2721	324
39.2795	321
39.2869	342
39.2943	341
39.3017	392
39.3091	363
39.3165	444
39.3239	427
39.3313	425
39.3387	441
39.3461	455
39.3535	416
39.3609	436
39.3682	378
39.3756	403
39.3830	412
39.3904	412
39.3978	376
39.4052	393
39.4126	388
39.4200	431
39.4274	373
39.4348	394
39.4422	360
39.4496	425
39.4570	376
39.4644	365
39.4718	387
39.4792	384
39.4866	336
39.4940	397
39.5014	357
39.5088	356
39.5162	337
39.5235	303
39.5309	321
39.5383	301
39.5457	305
39.5531	284
39.5605	304
39.5679	310
39.5753	296
39.5827	285
39.5901	266
39.5975	259
39.6049	290
39.6123	249
39.6197	255
39.6271	261
39.6345	259
39.6419	227
39.6493	203
39.6567	202
39.6641	199
39.6715	176
39.6788	197
39.6862	189
39.6936	178
39.7010	165
39.7084	207
39.7158	158
39.7232	158
39.7306	163
39.7380	204
39.7454	165
39.7528	158
39.7602	161
39.7676	162
39.7750	150
39.7824	156
39.7898	146
39.7972	156
39.8046	174
39.8120	149
39.8194	158
39.8268	156
39.8342	149
39.8415	139
39.8489	173
39.8563	172
39.8637	153
39.8711	170
39.8785	148
39.8859	173
39.8933	171
39.9007	177
39.9081	142
39.9155	142
39.9229	162
39.9303	141
39.9377	125
39.9451	153
39.9525	142
39.9599	191
39.9673	155
39.9747	145
39.9821	176
39.9895	162
39.9968	164
