2.0000	219
2.0074	218
2.0148	229
2.0222	214
2.0296	224
2.0370	219
2.0444	189
2.0518	184
2.0592	196
2.0666	201
2.0740	182
2.0813	183
2.0887	190
2.0961	219
2.1035	227
2.1109	235
2.1183	207
2.1257	209
2.1331	195
2.1405	219
2.1479	213
2.1553	220
2.1627	191
2.1701	187
2.1775	196
2.1849	221
2.1923	201
2.1997	197
2.2071	205
2.2145	226
2.2219	198
2.2293	230
2.2366	213
2.2440	202
2.2514	197
2.2588	197
2.2662	215
2.2736	207
2.2810	223
2.2884	204
2.2958	206
2.3032	203
2.3106	214
2.3180	203
2.3254	219
2.3328	215
2.3402	223
2.3476	219
2.3550	176
2.3624	211
2.3698	227
2.3772	211
2.3846	208
2.3919	187
2.3993	195
2.4067	201
2.4141	214
2.4215	214
2.4289	211
2.4363	180
2.4437	199
2.4511	198
2.4585	201
2.4659	200
2.4733	202
2.4807	198
2.4881	198
2.4955	195
2.5029	180
2.5103	209
2.5177	160
2.5251	212
2.5325	209
2.5399	194
2.5472	225
2.5546	175
2.5620	215
2.5694	195
2.5768	183
2.5842	201
2.5916	199
2.5990	204
2.6064	216
2.6138	184
2.6212	206
2.6286	167
2.6360	196
2.6434	184
2.6508	217
2.6582	207
2.6656	194
2.6730	207
2.6804	187
2.6878	179
2.6952	209
2.7025	204
2.7099	186
2.7173	182
2.7247	188
2.7321	178
2.7395	184
2.7469	190
2.7543	198
2.7617	196
2.7691	157
2.7765	214
2.7839	175
2.7913	172
2.7987	190
2.8061	177
2.8135	177
2.8209	208
2.8283	198
2.8357	184
2.8431	171
2.8505	196
2.8579	183
2.8652	174
2.8726	188
2.8800	196
2.8874	166
2.8948	178
2.9022	184
2.9096	176
2.9170	179
2.9244	191
2.9318	167
2.9392	157
2.9466	168
2.9540	185
2.9614	166
2.9688	182
2.9762	169
2.9836	167
2.9910	184
2.9984	169
3.0058	181
3.0132	183
3.0205	193
3.0279	178
3.0353	195
3.0427	189
3.0501	180
3.0575	167
3.0649	179
3.0723	152
3.0797	174
3.0871	177
3.0945	160
3.1019	191
3.1093	176
3.1167	164
3.1241	169
3.1315	174
3.1389	168
3.1463	160
3.1537	192
3.1611	184
3.1685	165
3.1758	197
3.1832	170
3.1906	160
3.1980	155
3.2054	200
3.2128	186
3.2202	171
3.2276	185
3.2350	174
3.2424	165
3.2498	200
3.2572	183
3.2646	174
3.2720	164
3.2794	162
3.2868	165
3.2942	149
3.3016	191
3.3090	185
3.3164	198
3.3238	142
3.3311	186
3.3385	171
3.3459	161
3.3533	169
3.3607	187
3.3681	168
3.3755	177
3.3829	195
3.3903	169
3.3977	162
3.4051	172
3.4125	183
3.4199	165
3.4273	178
3.4347	198
3.4421	155
3.4495	177
3.4569	163
3.4643	157
3.4717	182
3.4791	161
3.4864	187
3.4938	191
3.5012	162
3.5086	171
3.5160	181
3.5234	154
3.5308	151
3.5382	181
3.5456	169
3.5530	157
3.5604	152
3.5678	167
3.5752	173
3.5826	177
3.5900	167
3.5974	191
3.6048	178
3.6122	158
3.6196	179
3.6270	153
3.6344	145
3.6417	167
3.6491	170
3.6565	146
3.6639	178
3.6713	192
3.6787	182
3.6861	166
3.6935	165
3.7009	154
3.7083	167
3.7157	170
3.7231	152
3.7305	158
3.7379	161
3.7453	140
3.7527	150
3.7601	160
3.7675	155
3.7749	169
3.7823	190
3.7897	148
3.7970	187
3.8044	160
3.8118	162
3.8192	138
3.8266	179
3.8340	164
3.8414	164
3.8488	149
3.8562	148
3.8636	164
3.8710	181
3.8784	145
3.8858	150
3.8932	172
3.9006	145
3.9080	152
3.9154	139
3.9228	157
3.9302	143
3.9376	151
3.9450	142
3.9523	167
3.9597	155
3.9671	146
3.9745	140
3.9819	121
3.9893	136
3.9967	145
4.0041	151
4.0115	163
4.0189	122
4.0263	146
4.0337	147
4.0411	153
4.0485	122
4.0559	134
4.0633	136
4.0707	167
4.0781	120
4.0855	157
4.0929	122
4.1003	156
4.1076	139
4.1150	150
4.1224	133
4.1298	136
4.1372	118
4.1446	128
4.1520	140
4.1594	130
4.1668	140
4.1742	126
4.1816	158
4.1890	152
4.1964	129
4.2038	132
4.2112	144
4.2186	122
4.2260	147
4.2334	121
4.2408	152
4.2482	130
4.2556	137
4.2629	117
4.2703	148
4.2777	144
4.2851	148
4.2925	132
4.2999	121
4.3073	129
4.3147	140
4.3221	128
4.3295	127
4.3369	129
4.3443	137
4.3517	141
4.3591	142
4.3665	122
4.3739	112
4.3813	141
4.3887	117
4.3961	160
4.4035	130
4.4109	130
4.4183	128
4.4256	130
4.4330	125
4.4404	154
4.4478	128
4.4552	117
4.4626	129
4.4700	110
4.4774	119
4.4848	136
4.4922	135
4.4996	139
4.5070	143
4.5144	121
4.5218	120
4.5292	136
4.5366	126
4.5440	131
4.5514	125
4.5588	114
4.5662	130
4.5736	137
4.5809	155
4.5883	124
4.5957	128
4.6031	141
4.6105	141
4.6179	121
4.6253	129
4.6327	107
4.6401	110
4.6475	134
4.6549	113
4.6623	116
4.6697	114
4.6771	107
4.6845	121
4.6919	125
4.6993	133
4.7067	112
4.7141	131
4.7215	115
4.7289	139
4.7362	115
4.7436	135
4.7510	111
4.7584	149
4.7658	92
4.7732	126
4.7806	115
4.7880	129
4.7954	140
4.8028	128
4.8102	143
4.8176	128
4.8250	113
4.8324	124
4.8398	130
4.8472	108
4.8546	126
4.8620	111
4.8694	115
4.8768	118
4.8842	106
4.8915	108
4.8989	129
4.9063	107
4.9137	117
4.9211	118
4.9285	132
4.9359	117
4.9433	125
4.9507	115
4.9581	119
4.9655	110
4.9729	133
4.9803	133
4.9877	119
4.9951	113
5.0025	122
5.0099	139
5.0173	122
5.0247	125
5.0321	115
5.0395	104
5.0468	134
5.0542	114
5.0616	130
5.0690	121
5.0764	105
5.0838	111
5.0912	125
5.0986	132
5.1060	131
5.1134	130
5.1208	110
5.1282	127
5.1356	109
5.1430	106
5.1504	114
5.1578	129
5.1652	121
5.1726	134
5.1800	114
5.1874	132
5.1948	127
5.2021	124
5.2095	112
5.2169	120
5.2243	121
5.2317	119
5.2391	119
5.2465	114
5.2539	122
5.2613	104
5.2687	116
5.2761	145
5.2835	96
5.2909	124
5.2983	116
5.3057	113
5.3131	107
5.3205	106
5.3279	142
5.3353	117
5.3427	121
5.3501	147
5.3574	137
5.3648	126
5.3722	132
5.3796	134
5.3870	123
5.3944	129
5.4018	124
5.4092	145
5.4166	119
5.4240	148
5.4314	145
5.4388	136
5.4462	166
5.4536	140
5.4610	133
5.4684	136
5.4758	125
5.4832	146
5.4906	154
5.4980	157
5.5054	135
5.5127	150
5.5201	147
5.5275	136
5.5349	128
5.5423	163
5.5497	156
5.5571	149
5.5645	127
5.5719	151
5.5793	167
5.5867	158
5.5941	157
5.6015	172
5.6089	169
5.6163	210
5.6237	170
5.6311	182
5.6385	211
5.6459	192
5.6533	206
5.6607	185
5.6680	210
5.6754	236
5.6828	232
5.6902	218
5.6976	249
5.7050	262
5.7124	253
5.7198	268
5.7272	292
5.7346	296
5.7420	321
5.7494	339
5.7568	388
5.7642	361
5.7716	357
5.7790	429
5.7864	435
5.7938	444
5.8012	515
5.8086	522
5.8160	597
5.8233	630
5.8307	668
5.8381	675
5.8455	724
5.8529	808
5.8603	872
5.8677	874
5.8751	910
5.8825	1042
5.8899	1068
5.8973	1204
5.9047	1368
5.9121	1415
5.9195	1498
5.9269	1733
5.9343	1920
5.9417	1987
5.9491	2308
5.9565	2452
5.9639	2738
5.9713	3090
5.9786	3389
5.9860	3887
5.9934	4423
6.0008	4712
6.0082	5659
6.0156	6041
6.0230	6731
6.0304	6950
6.0378	7002
6.0452	6881
6.0526	6456
6.0600	5956
6.0674	5227
6.0748	4500
6.0822	3781
6.0896	3098
6.0970	2563
6.1044	2037
6.1118	1565
6.1192	1271
6.1266	1012
6.1340	833
6.1413	737
6.1487	561
6.1561	527
6.1635	424
6.1709	426
6.1783	388
6.1857	380
6.1931	354
6.2005	328
6.2079	335
6.2153	319
6.2227	298
6.2301	299
6.2375	262
6.2449	290
6.2523	279
6.2597	262
6.2671	224
6.2745	235
6.2819	233
6.2893	229
6.2966	229
6.3040	205
6.3114	245
6.3188	232
6.3262	241
6.3336	195
6.3410	224
6.3484	214
6.3558	197
6.3632	183
6.3706	199
6.3780	185
6.3854	202
6.3928	171
6.4002	166
6.4076	182
6.4150	207
6.4224	194
6.4298	195
6.4372	175
6.4446	186
6.4519	166
6.4593	189
6.4667	165
6.4741	158
6.4815	173
6.4889	160
6.4963	175
6.5037	158
6.5111	164
6.5185	182
6.5259	193
6.5333	171
6.5407	144
6.5481	166
6.5555	160
6.5629	175
6.5703	160
6.5777	167
6.5851	177
6.5925	153
6.5999	155
6.6072	156
6.6146	150
6.6220	153
6.6294	154
6.6368	156
6.6442	163
6.6516	150
6.6590	162
6.6664	155
6.6738	125
6.6812	136
6.6886	150
6.6960	159
6.7034	133
6.7108	145
6.7182	135
6.7256	144
6.7330	131
6.7404	125
6.7478	130
6.7552	131
6.7625	151
6.7699	121
6.7773	157
6.7847	145
6.7921	150
6.7995	123
6.8069	149
6.8143	136
6.8217	133
6.8291	130
6.8365	132
6.8439	134
6.8513	156
6.8587	109
6.8661	127
6.8735	153
6.8809	133
6.8883	140
6.8957	137
6.9031	152
6.9105	146
6.9178	142
6.9252	126
6.9326	138
6.9400	125
6.9474	129
6.9548	118
6.9622	118
6.9696	130
6.9770	122
6.9844	124
6.9918	124
6.9992	122
7.0066	128
7.0140	120
7.0214	141
7.0288	122
7.0362	109
7.0436	127
7.0510	139
7.0584	133
7.0658	122
7.0731	150
7.0805	109
7.0879	103
7.0953	117
7.1027	111
7.1101	105
7.1175	97
7.1249	107
7.1323	131
7.1397	102
7.1471	122
7.1545	132
7.1619	103
7.1693	120
7.1767	111
7.1841	118
7.1915	128
7.1989	128
7.2063	130
7.2137	120
7.2211	113
7.2284	118
7.2358	122
7.2432	127
7.2506	118
7.2580	116
7.2654	89
7.2728	115
7.2802	116
7.2876	104
7.2950	107
7.3024	80
7.3098	121
7.3172	123
7.3246	98
7.3320	91
7.3394	105
7.3468	107
7.3542	132
7.3616	120
7.3690	104
7.3764	113
7.3837	88
7.3911	105
7.3985	110
7.4059	98
7.4133	113
7.4207	111
7.4281	98
7.4355	95
7.4429	90
7.4503	95
7.4577	91
7.4651	102
7.4725	108
7.4799	115
7.4873	97
7.4947	105
7.5021	103
7.5095	100
7.5169	110
7.5243	111
7.5317	99
7.5390	107
7.5464	105
7.5538	96
7.5612	94
7.5686	94
7.5760	115
7.5834	104
7.5908	72
7.5982	98
7.6056	101
7.6130	103
7.6204	122
7.6278	101
7.6352	103
7.6426	126
7.6500	96
7.6574	93
7.6648	91
7.6722	112
7.6796	98
7.6870	92
7.6944	91
7.7017	83
7.7091	88
7.7165	93
7.7239	100
7.7313	77
7.7387	81
7.7461	109
7.7535	107
7.7609	88
7.7683	98
7.7757	84
7.7831	95
7.7905	90
7.7979	92
7.8053	106
7.8127	111
7.8201	107
7.8275	74
7.8349	88
7.8423	89
7.8497	89
7.8570	100
7.8644	111
7.8718	98
7.8792	84
7.8866	86
7.8940	92
7.9014	86
7.9088	97
7.9162	103
7.9236	102
7.9310	103
7.9384	109
7.9458	89
7.9532	106
7.9606	85
7.9680	125
7.9754	89
7.9828	73
7.9902	114
7.9976	96
8.0050	89
8.0123	73
8.0197	86
8.0271	97
8.0345	83
8.0419	87
8.0493	80
8.0567	88
8.0641	83
8.0715	86
8.0789	85
8.0863	76
8.0937	92
8.1011	102
8.1085	106
8.1159	90
8.1233	84
8.1307	103
8.1381	78
8.1455	78
8.1529	107
8.1603	81
8.1676	86
8.1750	99
8.1824	85
8.1898	86
8.1972	91
8.2046	99
8.2120	90
8.2194	90
8.2268	100
8.2342	95
8.2416	86
8.2490	82
8.2564	97
8.2638	101
8.2712	101
8.2786	83
8.2860	109
8.2934	88
8.3008	99
8.3082	108
8.3156	82
8.3229	85
8.3303	73
8.3377	81
8.3451	83
8.3525	97
8.3599	99
8.3673	83
8.3747	75
8.3821	87
8.3895	117
8.3969	88
8.4043	86
8.4117	87
8.4191	76
8.4265	82
8.4339	94
8.4413	70
8.4487	96
8.4561	100
8.4635	90
8.4709	96
8.4782	93
8.4856	74
8.4930	91
8.5004	75
8.5078	78
8.5152	107
8.5226	84
8.5300	91
8.5374	109
8.5448	83
8.5522	81
8.5596	87
8.5670	84
8.5744	93
8.5818	99
8.5892	67
8.5966	80
8.6040	94
8.6114	76
8.6188	89
8.6262	70
8.6335	88
8.6409	100
8.6483	85
8.6557	103
8.6631	91
8.6705	97
8.6779	85
8.6853	97
8.6927	66
8.7001	82
8.7075	91
8.7149	81
8.7223	82
8.7297	83
8.7371	83
8.7445	68
8.7519	82
8.7593	92
8.7667	87
8.7741	81
8.7815	100
8.7888	95
8.7962	95
8.8036	85
8.8110	91
8.8184	94
8.8258	89
8.8332	84
8.8406	96
8.8480	82
8.8554	81
8.8628	91
8.8702	71
8.8776	75
8.8850	89
8.8924	105
8.8998	102
8.9072	88
8.9146	79
8.9220	81
8.9294	92
8.9368	69
8.9441	89
8.9515	99
8.9589	80
8.9663	85
8.9737	89
8.9811	88
8.9885	89
8.9959	96
9.0033	89
9.0107	71
9.0181	89
9.0255	86
9.0329	98
9.0403	79
9.0477	88
9.0551	111
9.0625	90
9.0699	70
9.0773	84
9.0847	80
9.0921	82
9.0994	75
9.1068	82
9.1142	82
9.1216	68
9.1290	91
9.1364	85
9.1438	70
9.1512	88
9.1586	82
9.1660	88
9.1734	88
9.1808	83
9.1882	91
9.1956	81
9.2030	96
9.2104	88
9.2178	73
9.2252	89
9.2326	97
9.2400	89
9.2474	85
9.2548	85
9.2621	91
9.2695	87
9.2769	67
9.2843	80
9.2917	97
9.2991	85
9.3065	86
9.3139	88
9.3213	78
9.3287	88
9.3361	82
9.3435	83
9.3509	73
9.3583	88
9.3657	79
9.3731	89
9.3805	73
9.3879	70
9.3953	76
9.4027	97
9.4101	88
9.4174	86
9.4248	65
9.4322	91
9.4396	93
9.4470	83
9.4544	78
9.4618	84
9.4692	92
9.4766	91
9.4840	79
9.4914	86
9.4988	90
9.5062	68
9.5136	92
9.5210	87
9.5284	97
9.5358	87
9.5432	77
9.5506	75
9.5580	74
9.5654	77
9.5727	86
9.5801	98
9.5875	96
9.5949	81
9.6023	83
9.6097	79
9.6171	104
9.6245	89
9.6319	64
9.6393	99
9.6467	89
9.6541	86
9.6615	96
9.6689	90
9.6763	81
9.6837	102
9.6911	83
9.6985	74
9.7059	99
9.7133	92
9.7207	86
9.7280	92
9.7354	85
9.7428	89
9.7502	82
9.7576	89
9.7650	85
9.7724	91
9.7798	81
9.7872	90
9.7946	86
9.8020	90
9.8094	72
9.8168	92
9.8242	98
9.8316	87
9.8390	89
9.8464	85
9.8538	82
9.8612	79
9.8686	98
9.8760	71
9.8833	102
9.8907	68
9.8981	76
9.9055	90
9.9129	93
9.9203	101
9.9277	84
9.9351	87
9.9425	86
9.9499	83
9.9573	104
9.9647	95
9.9721	72
9.9795	83
9.9869	84
9.9943	97
10.0017	100
10.0091	76
10.0165	85
10.0239	79
10.0313	83
10.0386	81
10.0460	77
10.0534	104
10.0608	77
10.0682	87
10.0756	90
10.0830	75
10.0904	101
10.0978	94
10.1052	96
10.1126	92
10.1200	83
10.1274	88
10.1348	93
10.1422	75
10.1496	98
10.1570	89
10.1644	93
10.1718	90
10.1792	83
10.1866	99
10.1939	90
10.2013	107
10.2087	95
10.2161	76
10.2235	84
10.2309	97
10.2383	92
10.2457	84
10.2531	90
10.2605	93
10.2679	75
10.2753	80
10.2827	92
10.2901	79
10.2975	84
10.3049	88
10.3123	79
10.3197	81
10.3271	77
10.3345	82
10.3419	90
10.3492	91
10.3566	75
10.3640	72
10.3714	84
10.3788	91
10.3862	92
10.3936	79
10.4010	84
10.4084	95
10.4158	85
10.4232	75
10.4306	86
10.4380	89
10.4454	87
10.4528	92
10.4602	82
10.4676	71
10.4750	83
10.4824	81
10.4898	82
10.4972	89
10.5045	84
10.5119	90
10.5193	66
10.5267	95
10.5341	70
10.5415	79
10.5489	103
10.5563	80
10.5637	79
10.5711	96
10.5785	69
10.5859	84
10.5933	90
10.6007	93
10.6081	83
10.6155	81
10.6229	102
10.6303	87
10.6377	98
10.6451	97
10.6525	72
10.6598	78
10.6672	104
10.6746	96
10.6820	86
10.6894	99
10.6968	82
10.7042	84
10.7116	87
10.7190	89
10.7264	102
10.7338	82
10.7412	69
10.7486	88
10.7560	99
10.7634	91
10.7708	85
10.7782	80
10.7856	107
10.7930	78
10.8004	92
10.8078	99
10.8151	89
10.8225	100
10.8299	84
10.8373	75
10.8447	86
10.8521	86
10.8595	64
10.8669	99
10.8743	87
10.8817	97
10.8891	87
10.8965	88
10.9039	80
10.9113	85
10.9187	75
10.9261	87
10.9335	79
10.9409	96
10.9483	96
10.9557	103
10.9631	85
10.9705	98
10.9778	93
10.9852	99
10.9926	87
11.0000	93
11.0074	84
11.0148	78
11.0222	75
11.0296	87
11.0370	101
11.0444	82
11.0518	96
11.0592	107
11.0666	97
11.0740	93
11.0814	103
11.0888	87
11.0962	104
11.1036	92
11.1110	97
11.1184	92
11.1258	97
11.1331	97
11.1405	95
11.1479	95
11.1553	88
11.1627	94
11.1701	92
11.1775	96
11.1849	94
11.1923	92
11.1997	96
11.2071	88
11.2145	95
11.2219	101
11.2293	80
11.2367	96
11.2441	85
11.2515	86
11.2589	88
11.2663	84
11.2737	101
11.2811	111
11.2884	70
11.2958	90
11.3032	95
11.3106	91
11.3180	91
11.3254	76
11.3328	86
11.3402	80
11.3476	103
11.3550	95
11.3624	86
11.3698	91
11.3772	72
11.3846	92
11.3920	83
11.3994	86
11.4068	107
11.4142	102
11.4216	93
11.4290	94
11.4364	86
11.4437	98
11.4511	84
11.4585	104
11.4659	93
11.4733	104
11.4807	87
11.4881	86
11.4955	96
11.5029	109
11.5103	99
11.5177	92
11.5251	104
11.5325	105
11.5399	98
11.5473	103
11.5547	81
11.5621	107
11.5695	111
11.5769	100
11.5843	96
11.5917	115
11.5990	90
11.6064	101
11.6138	96
11.6212	89
11.6286	96
11.6360	115
11.6434	85
11.6508	117
11.6582	94
11.6656	80
11.6730	117
11.6804	97
11.6878	113
11.6952	90
11.7026	93
11.7100	111
11.7174	98
11.7248	106
11.7322	101
11.7396	105
11.7470	103
11.7543	100
11.7617	101
11.7691	121
11.7765	104
11.7839	106
11.7913	127
11.7987	115
11.8061	119
11.8135	121
11.8209	134
11.8283	137
11.8357	123
11.8431	119
11.8505	132
11.8579	122
11.8653	126
11.8727	113
11.8801	139
11.8875	142
11.8949	154
11.9023	129
11.9096	171
11.9170	165
11.9244	159
11.9318	167
11.9392	175
11.9466	170
11.9540	195
11.9614	204
11.9688	215
11.9762	248
11.9836	267
11.9910	280
11.9984	300
12.0058	377
12.0132	362
12.0206	364
12.0280	345
12.0354	375
12.0428	363
12.0502	315
12.0576	334
12.0649	304
12.0723	299
12.0797	263
12.0871	228
12.0945	229
12.1019	261
12.1093	243
12.1167	250
12.1241	264
12.1315	261
12.1389	288
12.1463	279
12.1537	306
12.1611	331
12.1685	368
12.1759	421
12.1833	500
12.1907	496
12.1981	631
12.2055	671
12.2129	757
12.2202	834
12.2276	1012
12.2350	1211
12.2424	1371
12.2498	1681
12.2572	1959
12.2646	2210
12.2720	2247
12.2794	2291
12.2868	2346
12.2942	2176
12.3016	2079
12.3090	2047
12.3164	1752
12.3238	1444
12.3312	1331
12.3386	1071
12.3460	953
12.3534	796
12.3608	728
12.3682	620
12.3755	548
12.3829	517
12.3903	479
12.3977	502
12.4051	541
12.4125	507
12.4199	579
12.4273	605
12.4347	683
12.4421	738
12.4495	802
12.4569	944
12.4643	994
12.4717	998
12.4791	1040
12.4865	997
12.4939	933
12.5013	862
12.5087	789
12.5161	679
12.5235	612
12.5309	488
12.5382	476
12.5456	393
12.5530	344
12.5604	311
12.5678	279
12.5752	251
12.5826	231
12.5900	199
12.5974	212
12.6048	185
12.6122	168
12.6196	170
12.6270	133
12.6344	166
12.6418	136
12.6492	150
12.6566	170
12.6640	169
12.6714	141
12.6788	145
12.6862	133
12.6935	137
12.7009	124
12.7083	129
12.7157	124
12.7231	127
12.7305	134
12.7379	115
12.7453	130
12.7527	127
12.7601	122
12.7675	139
12.7749	118
12.7823	139
12.7897	131
12.7971	130
12.8045	136
12.8119	123
12.8193	121
12.8267	131
12.8341	122
12.8415	124
12.8488	132
12.8562	137
12.8636	117
12.8710	127
12.8784	123
12.8858	100
12.8932	120
12.9006	105
12.9080	114
12.9154	117
12.9228	133
12.9302	115
12.9376	110
12.9450	126
12.9524	111
12.9598	133
12.9672	104
12.9746	119
12.9820	110
12.9894	125
12.9968	107
13.0041	113
13.0115	119
13.0189	92
13.0263	116
13.0337	123
13.0411	115
13.0485	137
13.0559	111
13.0633	105
13.0707	109
13.0781	116
13.0855	120
13.0929	123
13.1003	109
13.1077	123
13.1151	101
13.1225	121
13.1299	99
13.1373	104
13.1447	106
13.1521	123
13.1594	99
13.1668	118
13.1742	103
13.1816	104
13.1890	109
13.1964	98
13.2038	112
13.2112	111
13.2186	114
13.2260	89
13.2334	119
13.2408	110
13.2482	130
13.2556	109
13.2630	107
13.2704	97
13.2778	113
13.2852	104
13.2926	103
13.3000	107
13.3074	118
13.3147	109
13.3221	103
13.3295	116
13.3369	118
13.3443	112
13.3517	105
13.3591	124
13.3665	118
13.3739	115
13.3813	102
13.3887	104
13.3961	104
13.4035	110
13.4109	115
13.4183	114
13.4257	104
13.4331	119
13.4405	99
13.4479	118
13.4553	116
13.4627	110
13.4700	109
13.4774	101
13.4848	111
13.4922	111
13.4996	107
13.5070	105
13.5144	114
13.5218	100
13.5292	100
13.5366	100
13.5440	120
13.5514	124
13.5588	115
13.5662	121
13.5736	108
13.5810	113
13.5884	93
13.5958	120
13.6032	126
13.6106	115
13.6180	112
13.6253	84
13.6327	111
13.6401	114
13.6475	116
13.6549	110
13.6623	91
13.6697	102
13.6771	103
13.6845	103
13.6919	96
13.6993	87
13.7067	92
13.7141	114
13.7215	100
13.7289	104
13.7363	102
13.7437	85
13.7511	102
13.7585	125
13.7659	88
13.7733	115
13.7806	114
13.7880	114
13.7954	120
13.8028	110
13.8102	124
13.8176	96
13.8250	97
13.8324	110
13.8398	95
13.8472	96
13.8546	97
13.8620	106
13.8694	96
13.8768	112
13.8842	103
13.8916	108
13.8990	102
13.9064	95
13.9138	96
13.9212	99
13.9286	97
13.9359	105
13.9433	103
13.9507	96
13.9581	85
13.9655	109
13.9729	89
13.9803	94
13.9877	97
13.9951	112
14.0025	102
14.0099	103
14.0173	111
14.0247	104
14.0321	86
14.0395	103
14.0469	97
14.0543	125
14.0617	113
14.0691	97
14.0765	105
14.0839	93
14.0913	113
14.0986	100
14.1060	97
14.1134	99
14.1208	94
14.1282	94
14.1356	91
14.1430	99
14.1504	94
14.1578	105
14.1652	105
14.1726	101
14.1800	99
14.1874	110
14.1948	117
14.2022	101
14.2096	99
14.2170	118
14.2244	88
14.2318	99
14.2392	104
14.2466	109
14.2539	110
14.2613	110
14.2687	113
14.2761	103
14.2835	108
14.2909	118
14.2983	131
14.3057	114
14.3131	121
14.3205	119
14.3279	98
14.3353	119
14.3427	118
14.3501	130
14.3575	108
14.3649	128
14.3723	112
14.3797	105
14.3871	120
14.3945	127
14.4019	114
14.4092	131
14.4166	124
14.4240	131
14.4314	139
14.4388	114
14.4462	111
14.4536	115
14.4610	124
14.4684	137
14.4758	132
14.4832	137
14.4906	124
14.4980	120
14.5054	125
14.5128	159
14.5202	137
14.5276	150
14.5350	157
14.5424	165
14.5498	135
14.5572	137
14.5645	157
14.5719	150
14.5793	163
14.5867	166
14.5941	154
14.6015	186
14.6089	214
14.6163	208
14.6237	199
14.6311	223
14.6385	219
14.6459	256
14.6533	266
14.6607	279
14.6681	316
14.6755	329
14.6829	353
14.6903	416
14.6977	480
14.7051	548
14.7125	628
14.7198	670
14.7272	772
14.7346	864
14.7420	1027
14.7494	1129
14.7568	1163
14.7642	1254
14.7716	1301
14.7790	1390
14.7864	1415
14.7938	1409
14.8012	1188
14.8086	1215
14.8160	1136
14.8234	1063
14.8308	863
14.8382	792
14.8456	755
14.8530	628
14.8604	518
14.8678	480
14.8751	403
14.8825	364
14.8899	317
14.8973	296
14.9047	288
14.9121	259
14.9195	263
14.9269	245
14.9343	228
14.9417	227
14.9491	196
14.9565	196
14.9639	155
14.9713	216
14.9787	193
14.9861	196
14.9935	179
15.0009	171
15.0083	177
15.0157	201
15.0231	186
15.0304	219
15.0378	164
15.0452	177
15.0526	202
15.0600	206
15.0674	203
15.0748	197
15.0822	188
15.0896	190
15.0970	220
15.1044	214
15.1118	245
15.1192	243
15.1266	229
15.1340	260
15.1414	299
15.1488	320
15.1562	335
15.1636	340
15.1710	409
15.1784	481
15.1857	490
15.1931	556
15.2005	699
15.2079	679
15.2153	724
15.2227	858
15.2301	932
15.2375	1044
15.2449	1071
15.2523	1103
15.2597	1065
15.2671	1074
15.2745	1023
15.2819	971
15.2893	911
15.2967	804
15.3041	726
15.3115	674
15.3189	546
15.3263	480
15.3337	378
15.3410	388
15.3484	293
15.3558	251
15.3632	236
15.3706	216
15.3780	183
15.3854	184
15.3928	191
15.4002	175
15.4076	165
15.4150	146
15.4224	172
15.4298	150
15.4372	134
15.4446	164
15.4520	139
15.4594	134
15.4668	141
15.4742	126
15.4816	137
15.4890	128
15.4963	132
15.5037	124
15.5111	138
15.5185	105
15.5259	96
15.5333	116
15.5407	120
15.5481	119
15.5555	130
15.5629	114
15.5703	124
15.5777	127
15.5851	98
15.5925	123
15.5999	108
15.6073	99
15.6147	107
15.6221	92
15.6295	86
15.6369	109
15.6443	94
15.6516	113
15.6590	111
15.6664	114
15.6738	106
15.6812	99
15.6886	106
15.6960	117
15.7034	110
15.7108	106
15.7182	114
15.7256	104
15.7330	110
15.7404	120
15.7478	102
15.7552	103
15.7626	96
15.7700	107
15.7774	105
15.7848	97
15.7922	102
15.7996	82
15.8070	111
15.8143	92
15.8217	83
15.8291	95
15.8365	109
15.8439	91
15.8513	102
15.8587	94
15.8661	95
15.8735	123
15.8809	103
15.8883	99
15.8957	93
15.9031	100
15.9105	101
15.9179	97
15.9253	101
15.9327	103
15.9401	91
15.9475	93
15.9549	100
15.9623	97
15.9696	100
15.9770	87
15.9844	104
15.9918	108
15.9992	94
16.0066	105
16.0140	103
16.0214	85
16.0288	89
16.0362	97
16.0436	91
16.0510	95
16.0584	93
16.0658	76
16.0732	103
16.0806	91
16.0880	97
16.0954	95
16.1028	111
16.1102	92
16.1176	89
16.1249	89
16.1323	89
16.1397	104
16.1471	96
16.1545	99
16.1619	78
16.1693	102
16.1767	92
16.1841	101
16.1915	97
16.1989	90
16.2063	109
16.2137	87
16.2211	82
16.2285	105
16.2359	99
16.2433	106
16.2507	96
16.2581	90
16.2655	85
16.2729	108
16.2802	98
16.2876	84
16.2950	103
16.3024	116
16.3098	110
16.3172	89
16.3246	89
16.3320	91
16.3394	90
16.3468	96
16.3542	91
16.3616	83
16.3690	99
16.3764	90
16.3838	66
16.3912	102
16.3986	88
16.4060	89
16.4134	87
16.4208	84
16.4282	79
16.4355	89
16.4429	91
16.4503	87
16.4577	85
16.4651	94
16.4725	100
16.4799	91
16.4873	102
16.4947	110
16.5021	109
16.5095	97
16.5169	88
16.5243	93
16.5317	88
16.5391	95
16.5465	82
16.5539	87
16.5613	100
16.5687	96
16.5761	97
16.5835	97
16.5908	105
16.5982	115
16.6056	99
16.6130	102
16.6204	120
16.6278	107
16.6352	119
16.6426	105
16.6500	132
16.6574	146
16.6648	96
16.6722	126
16.6796	127
16.6870	138
16.6944	132
16.7018	143
16.7092	145
16.7166	138
16.7240	141
16.7314	128
16.7388	128
16.7461	108
16.7535	140
16.7609	125
16.7683	126
16.7757	83
16.7831	113
16.7905	89
16.7979	90
16.8053	100
16.8127	95
16.8201	98
16.8275	107
16.8349	96
16.8423	97
16.8497	98
16.8571	98
16.8645	92
16.8719	106
16.8793	104
16.8867	102
16.8941	96
16.9014	99
16.9088	98
16.9162	98
16.9236	85
16.9310	93
16.9384	84
16.9458	101
16.9532	107
16.9606	97
16.9680	96
16.9754	87
16.9828	87
16.9902	91
16.9976	91
17.0050	114
17.0124	110
17.0198	96
17.0272	94
17.0346	105
17.0420	100
17.0494	101
17.0567	99
17.0641	124
17.0715	96
17.0789	103
17.0863	104
17.0937	102
17.1011	118
17.1085	92
17.1159	114
17.1233	108
17.1307	120
17.1381	129
17.1455	112
17.1529	106
17.1603	89
17.1677	115
17.1751	102
17.1825	99
17.1899	121
17.1973	126
17.2047	109
17.2120	116
17.2194	110
17.2268	131
17.2342	115
17.2416	108
17.2490	125
17.2564	88
17.2638	111
17.2712	112
17.2786	106
17.2860	111
17.2934	109
17.3008	108
17.3082	110
17.3156	111
17.3230	113
17.3304	113
17.3378	128
17.3452	131
17.3526	126
17.3600	122
17.3674	106
17.3747	116
17.3821	122
17.3895	111
17.3969	117
17.4043	140
17.4117	134
17.4191	163
17.4265	167
17.4339	143
17.4413	155
17.4487	178
17.4561	196
17.4635	164
17.4709	196
17.4783	204
17.4857	209
17.4931	217
17.5005	254
17.5079	268
17.5153	288
17.5227	271
17.5300	317
17.5374	364
17.5448	403
17.5522	439
17.5596	481
17.5670	567
17.5744	635
17.5818	718
17.5892	813
17.5966	926
17.6040	967
17.6114	1045
17.6188	1031
17.6262	1056
17.6336	1125
17.6410	1048
17.6484	953
17.6558	890
17.6632	853
17.6706	766
17.6780	731
17.6853	593
17.6927	541
17.7001	480
17.7075	444
17.7149	434
17.7223	375
17.7297	319
17.7371	332
17.7445	319
17.7519	339
17.7593	378
17.7667	349
17.7741	374
17.7815	398
17.7889	406
17.7963	374
17.8037	397
17.8111	402
17.8185	392
17.8259	398
17.8333	325
17.8406	308
17.8480	288
17.8554	274
17.8628	249
17.8702	216
17.8776	207
17.8850	207
17.8924	190
17.8998	159
17.9072	173
17.9146	153
17.9220	165
17.9294	147
17.9368	143
17.9442	168
17.9516	136
17.9590	126
17.9664	132
17.9738	141
17.9812	160
17.9886	152
17.9959	147
18.0033	136
18.0107	154
18.0181	149
18.0255	141
18.0329	166
18.0403	142
18.0477	146
18.0551	151
18.0625	161
18.0699	130
18.0773	141
18.0847	147
18.0921	147
18.0995	129
18.1069	136
18.1143	113
18.1217	136
18.1291	139
18.1365	121
18.1439	128
18.1512	119
18.1586	110
18.1660	125
18.1734	129
18.1808	113
18.1882	111
18.1956	100
18.2030	105
18.2104	112
18.2178	116
18.2252	122
18.2326	94
18.2400	127
18.2474	133
18.2548	128
18.2622	125
18.2696	117
18.2770	146
18.2844	108
18.2918	153
18.2992	131
18.3065	161
18.3139	155
18.3213	142
18.3287	152
18.3361	150
18.3435	157
18.3509	159
18.3583	192
18.3657	185
18.3731	217
18.3805	200
18.3879	181
18.3953	220
18.4027	251
18.4101	216
18.4175	228
18.4249	209
18.4323	189
18.4397	205
18.4471	194
18.4545	212
18.4618	181
18.4692	168
18.4766	175
18.4840	174
18.4914	150
18.4988	174
18.5062	160
18.5136	182
18.5210	158
18.5284	162
18.5358	148
18.5432	147
18.5506	137
18.5580	153
18.5654	146
18.5728	158
18.5802	163
18.5876	149
18.5950	167
18.6024	160
18.6098	156
18.6171	159
18.6245	168
18.6319	191
18.6393	187
18.6467	177
18.6541	151
18.6615	190
18.6689	212
18.6763	196
18.6837	173
18.6911	246
18.6985	200
18.7059	239
18.7133	237
18.7207	265
18.7281	263
18.7355	267
18.7429	347
18.7503	341
18.7577	369
18.7651	395
18.7724	422
18.7798	465
18.7872	573
18.7946	608
18.8020	610
18.8094	683
18.8168	779
18.8242	863
18.8316	905
18.8390	934
18.8464	992
18.8538	1070
18.8612	1273
18.8686	1370
18.8760	1465
18.8834	1677
18.8908	1809
18.8982	2154
18.9056	2371
18.9130	2549
18.9204	2779
18.9278	2789
18.9351	2841
18.9425	2828
18.9499	2760
18.9573	2599
18.9647	2431
18.9721	2239
18.9795	2156
18.9869	1861
18.9943	1650
19.0017	1444
19.0091	1229
19.0165	1017
19.0239	1007
19.0313	803
19.0387	765
19.0461	641
19.0535	563
19.0609	512
19.0683	444
19.0757	395
19.0831	402
19.0904	383
19.0978	353
19.1052	315
19.1126	341
19.1200	300
19.1274	279
19.1348	263
19.1422	273
19.1496	271
19.1570	222
19.1644	246
19.1718	243
19.1792	243
19.1866	247
19.1940	253
19.2014	228
19.2088	239
19.2162	192
19.2236	213
19.2310	215
19.2384	191
19.2457	185
19.2531	172
19.2605	178
19.2679	145
19.2753	188
19.2827	213
19.2901	174
19.2975	169
19.3049	195
19.3123	198
19.3197	194
19.3271	157
19.3345	192
19.3419	181
19.3493	175
19.3567	202
19.3641	192
19.3715	173
19.3789	189
19.3863	208
19.3937	190
19.4010	208
19.4084	169
19.4158	180
19.4232	216
19.4306	227
19.4380	229
19.4454	216
19.4528	259
19.4602	252
19.4676	287
19.4750	287
19.4824	315
19.4898	374
19.4972	411
19.5046	412
19.5120	488
19.5194	539
19.5268	574
19.5342	668
19.5416	693
19.5490	745
19.5563	811
19.5637	761
19.5711	765
19.5785	816
19.5859	734
19.5933	721
19.6007	672
19.6081	627
19.6155	595
19.6229	496
19.6303	467
19.6377	408
19.6451	368
19.6525	343
19.6599	324
19.6673	253
19.6747	253
19.6821	220
19.6895	210
19.6969	223
19.7043	164
19.7116	188
19.7190	174
19.7264	165
19.7338	154
19.7412	152
19.7486	162
19.7560	155
19.7634	140
19.7708	138
19.7782	145
19.7856	135
19.7930	145
19.8004	130
19.8078	137
19.8152	132
19.8226	140
19.8300	135
19.8374	137
19.8448	113
19.8522	121
19.8596	112
19.8669	128
19.8743	139
19.8817	144
19.8891	108
19.8965	118
19.9039	117
19.9113	129
19.9187	108
19.9261	110
19.9335	114
19.9409	117
19.9483	132
19.9557	122
19.9631	110
19.9705	116
19.9779	127
19.9853	110
19.9927	114
20.0001	116
20.0075	131
20.0149	115
20.0222	124
20.0296	116
20.0370	152
20.0444	132
20.0518	127
20.0592	103
20.0666	134
20.0740	134
20.0814	143
20.0888	133
20.0962	127
20.1036	131
20.1110	123
20.1184	129
20.1258	155
20.1332	152
20.1406	149
20.1480	140
20.1554	138
20.1628	140
20.1702	131
20.1775	153
20.1849	156
20.1923	154
20.1997	167
20.2071	198
20.2145	207
20.2219	191
20.2293	217
20.2367	227
20.2441	252
20.2515	275
20.2589	308
20.2663	333
20.2737	400
20.2811	429
20.2885	471
20.2959	465
20.3033	462
20.3107	425
20.3181	456
20.3255	421
20.3328	393
20.3402	368
20.3476	345
20.3550	321
20.3624	331
20.3698	303
20.3772	265
20.3846	215
20.3920	242
20.3994	222
20.4068	190
20.4142	215
20.4216	213
20.4290	184
20.4364	190
20.4438	187
20.4512	178
20.4586	148
20.4660	171
20.4734	205
20.4808	191
20.4882	177
20.4955	175
20.5029	195
20.5103	187
20.5177	174
20.5251	182
20.5325	198
20.5399	169
20.5473	172
20.5547	216
20.5621	194
20.5695	210
20.5769	215
20.5843	203
20.5917	198
20.5991	182
20.6065	216
20.6139	233
20.6213	223
20.6287	266
20.6361	235
20.6435	222
20.6508	260
20.6582	250
20.6656	328
20.6730	264
20.6804	336
20.6878	342
20.6952	345
20.7026	399
20.7100	439
20.7174	503
20.7248	525
20.7322	578
20.7396	597
20.7470	652
20.7544	709
20.7618	729
20.7692	730
20.7766	697
20.7840	648
20.7914	669
20.7988	718
20.8061	657
20.8135	650
20.8209	568
20.8283	563
20.8357	593
20.8431	582
20.8505	636
20.8579	577
20.8653	637
20.8727	650
20.8801	675
20.8875	730
20.8949	788
20.9023	847
20.9097	968
20.9171	1049
20.9245	1185
20.9319	1376
20.9393	1554
20.9467	1804
20.9541	2023
20.9614	2178
20.9688	2405
20.9762	2506
20.9836	2707
20.9910	2717
20.9984	2740
21.0058	2567
21.0132	2526
21.0206	2433
21.0280	2243
21.0354	2121
21.0428	1935
21.0502	1676
21.0576	1557
21.0650	1402
21.0724	1213
21.0798	1090
21.0872	887
21.0946	807
21.1020	748
21.1094	632
21.1167	566
21.1241	494
21.1315	511
21.1389	441
21.1463	397
21.1537	418
21.1611	374
21.1685	335
21.1759	363
21.1833	307
21.1907	324
21.1981	305
21.2055	284
21.2129	274
21.2203	305
21.2277	263
21.2351	261
21.2425	247
21.2499	243
21.2573	256
21.2647	235
21.2720	236
21.2794	201
21.2868	206
21.2942	225
21.3016	188
21.3090	213
21.3164	181
21.3238	190
21.3312	169
21.3386	190
21.3460	167
21.3534	220
21.3608	189
21.3682	206
21.3756	198
21.3830	177
21.3904	181
21.3978	197
21.4052	207
21.4126	201
21.4200	198
21.4273	176
21.4347	209
21.4421	190
21.4495	198
21.4569	171
21.4643	194
21.4717	199
21.4791	206
21.4865	227
21.4939	225
21.5013	265
21.5087	267
21.5161	284
21.5235	294
21.5309	323
21.5383	381
21.5457	403
21.5531	489
21.5605	554
21.5679	557
21.5753	639
21.5826	615
21.5900	641
21.5974	632
21.6048	597
21.6122	516
21.6196	558
21.6270	489
21.6344	491
21.6418	474
21.6492	452
21.6566	399
21.6640	318
21.6714	310
21.6788	260
21.6862	262
21.6936	226
21.7010	215
21.7084	195
21.7158	219
21.7232	175
21.7306	190
21.7379	179
21.7453	206
21.7527	198
21.7601	207
21.7675	211
21.7749	198
21.7823	190
21.7897	185
21.7971	233
21.8045	210
21.8119	195
21.8193	202
21.8267	196
21.8341	205
21.8415	214
21.8489	186
21.8563	172
21.8637	159
21.8711	148
21.8785	150
21.8859	143
21.8932	133
21.9006	126
21.9080	139
21.9154	138
21.9228	144
21.9302	121
21.9376	122
21.9450	130
21.9524	93
21.9598	114
21.9672	122
21.9746	102
21.9820	115
21.9894	105
21.9968	129
22.0042	109
22.0116	100
22.0190	120
22.0264	129
22.0338	122
22.0412	111
22.0485	128
22.0559	86
22.0633	125
22.0707	97
22.0781	128
22.0855	100
22.0929	103
22.1003	90
22.1077	131
22.1151	92
22.1225	124
22.1299	100
22.1373	114
22.1447	96
22.1521	98
22.1595	112
22.1669	95
22.1743	125
22.1817	103
22.1891	99
22.1965	127
22.2039	93
22.2112	97
22.2186	123
22.2260	90
22.2334	107
22.2408	100
22.2482	101
22.2556	120
22.2630	109
22.2704	78
22.2778	100
22.2852	95
22.2926	121
22.3000	99
22.3074	108
22.3148	91
22.3222	113
22.3296	123
22.3370	106
22.3444	116
22.3518	109
22.3592	80
22.3665	95
22.3739	112
22.3813	108
22.3887	90
22.3961	118
22.4035	110
22.4109	103
22.4183	107
22.4257	94
22.4331	91
22.4405	110
22.4479	111
22.4553	116
22.4627	88
22.4701	86
22.4775	102
22.4849	94
22.4923	105
22.4997	114
22.5071	113
22.5145	100
22.5218	104
22.5292	85
22.5366	115
22.5440	107
22.5514	103
22.5588	107
22.5662	93
22.5736	117
22.5810	87
22.5884	101
22.5958	95
22.6032	105
22.6106	103
22.6180	102
22.6254	103
22.6328	107
22.6402	119
22.6476	91
22.6550	114
22.6624	114
22.6698	99
22.6771	78
22.6845	105
22.6919	95
22.6993	97
22.7067	115
22.7141	93
22.7215	100
22.7289	123
22.7363	108
22.7437	86
22.7511	80
22.7585	128
22.7659	87
22.7733	95
22.7807	124
22.7881	105
22.7955	127
22.8029	116
22.8103	95
22.8177	116
22.8251	140
22.8324	122
22.8398	131
22.8472	126
22.8546	144
22.8620	134
22.8694	144
22.8768	156
22.8842	134
22.8916	164
22.8990	138
22.9064	137
22.9138	127
22.9212	122
22.9286	111
22.9360	139
22.9434	117
22.9508	148
22.9582	111
22.9656	129
22.9730	113
22.9804	113
22.9877	98
22.9951	127
23.0025	100
23.0099	105
23.0173	120
23.0247	86
23.0321	98
23.0395	78
23.0469	113
23.0543	87
23.0617	104
23.0691	92
23.0765	111
23.0839	94
23.0913	105
23.0987	100
23.1061	96
23.1135	92
23.1209	87
23.1283	92
23.1357	99
23.1430	100
23.1504	117
23.1578	121
23.1652	96
23.1726	89
23.1800	93
23.1874	82
23.1948	94
23.2022	100
23.2096	113
23.2170	85
23.2244	103
23.2318	97
23.2392	115
23.2466	98
23.2540	94
23.2614	106
23.2688	91
23.2762	88
23.2836	91
23.2910	114
23.2983	86
23.3057	103
23.3131	98
23.3205	99
23.3279	104
23.3353	102
23.3427	111
23.3501	120
23.3575	115
23.3649	111
23.3723	115
23.3797	92
23.3871	106
23.3945	105
23.4019	108
23.4093	97
23.4167	108
23.4241	97
23.4315	100
23.4389	115
23.4463	79
23.4536	125
23.4610	105
23.4684	104
23.4758	102
23.4832	119
23.4906	96
23.4980	107
23.5054	109
23.5128	116
23.5202	102
23.5276	103
23.5350	93
23.5424	106
23.5498	113
23.5572	99
23.5646	98
23.5720	107
23.5794	106
23.5868	102
23.5942	121
23.6016	114
23.6089	115
23.6163	106
23.6237	109
23.6311	134
23.6385	130
23.6459	115
23.6533	117
23.6607	111
23.6681	87
23.6755	118
23.6829	104
23.6903	111
23.6977	123
23.7051	125
23.7125	123
23.7199	110
23.7273	110
23.7347	118
23.7421	137
23.7495	119
23.7569	121
23.7643	105
23.7716	122
23.7790	122
23.7864	133
23.7938	127
23.8012	114
23.8086	121
23.8160	125
23.8234	126
23.8308	119
23.8382	133
23.8456	141
23.8530	129
23.8604	125
23.8678	151
23.8752	131
23.8826	154
23.8900	171
23.8974	166
23.9048	179
23.9122	170
23.9196	186
23.9269	149
23.9343	174
23.9417	192
23.9491	198
23.9565	233
23.9639	224
23.9713	254
23.9787	265
23.9861	298
23.9935	318
24.0009	342
24.0083	412
24.0157	477
24.0231	536
24.0305	597
24.0379	646
24.0453	819
24.0527	933
24.0601	971
24.0675	1116
24.0749	1086
24.0822	1175
24.0896	1114
24.0970	1103
24.1044	1073
24.1118	1011
24.1192	962
24.1266	929
24.1340	887
24.1414	862
24.1488	772
24.1562	618
24.1636	596
24.1710	584
24.1784	459
24.1858	402
24.1932	376
24.2006	338
24.2080	294
24.2154	307
24.2228	274
24.2302	270
24.2375	263
24.2449	238
24.2523	240
24.2597	242
24.2671	225
24.2745	229
24.2819	241
24.2893	238
24.2967	254
24.3041	278
24.3115	252
24.3189	292
24.3263	275
24.3337	288
24.3411	323
24.3485	314
24.3559	328
24.3633	309
24.3707	282
24.3781	298
24.3855	300
24.3928	310
24.4002	301
24.4076	298
24.4150	291
24.4224	283
24.4298	257
24.4372	254
24.4446	241
24.4520	235
24.4594	220
24.4668	228
24.4742	228
24.4816	242
24.4890	235
24.4964	218
24.5038	205
24.5112	211
24.5186	209
24.5260	245
24.5334	232
24.5408	226
24.5481	242
24.5555	271
24.5629	285
24.5703	278
24.5777	262
24.5851	308
24.5925	302
24.5999	306
24.6073	331
24.6147	332
24.6221	423
24.6295	377
24.6369	357
24.6443	399
24.6517	388
24.6591	424
24.6665	457
24.6739	406
24.6813	411
24.6887	370
24.6961	439
24.7034	428
24.7108	426
24.7182	445
24.7256	483
24.7330	526
24.7404	527
24.7478	585
24.7552	652
24.7626	647
24.7700	780
24.7774	840
24.7848	954
24.7922	1026
24.7996	1076
24.8070	1160
24.8144	1186
24.8218	1176
24.8292	1162
24.8366	1135
24.8440	1195
24.8514	1112
24.8587	1090
24.8661	1067
24.8735	1078
24.8809	994
24.8883	1010
24.8957	977
24.9031	988
24.9105	887
24.9179	991
24.9253	895
24.9327	954
24.9401	1034
24.9475	1096
24.9549	1217
24.9623	1339
24.9697	1630
24.9771	1877
24.9845	2184
24.9919	2477
24.9993	2893
25.0067	3181
25.0140	3282
25.0214	3366
25.0288	3383
25.0362	3228
25.0436	3066
25.0510	2921
25.0584	2782
25.0658	2694
25.0732	2512
25.0806	2342
25.0880	2169
25.0954	2006
25.1028	1777
25.1102	1549
25.1176	1322
25.1250	1163
25.1324	1033
25.1398	777
25.1472	749
25.1546	688
25.1620	569
25.1693	549
25.1767	495
25.1841	416
25.1915	408
25.1989	352
25.2063	359
25.2137	342
25.2211	302
25.2285	291
25.2359	287
25.2433	299
25.2507	256
25.2581	261
25.2655	242
25.2729	251
25.2803	243
25.2877	248
25.2951	226
25.3025	213
25.3099	237
25.3173	216
25.3247	220
25.3320	243
25.3394	202
25.3468	201
25.3542	175
25.3616	184
25.3690	195
25.3764	186
25.3838	210
25.3912	172
25.3986	187
25.4060	195
25.4134	167
25.4208	156
25.4282	145
25.4356	173
25.4430	168
25.4504	196
25.4578	163
25.4652	141
25.4726	168
25.4800	171
25.4873	153
25.4947	171
25.5021	131
25.5095	156
25.5169	153
25.5243	159
25.5317	153
25.5391	135
25.5465	157
25.5539	167
25.5613	166
25.5687	155
25.5761	162
25.5835	175
25.5909	147
25.5983	146
25.6057	179
25.6131	160
25.6205	165
25.6279	158
25.6353	161
25.6426	165
25.6500	178
25.6574	161
25.6648	170
25.6722	163
25.6796	195
25.6870	184
25.6944	223
25.7018	195
25.7092	201
25.7166	220
25.7240	215
25.7314	210
25.7388	207
25.7462	204
25.7536	192
25.7610	237
25.7684	213
25.7758	219
25.7832	247
25.7906	206
25.7979	209
25.8053	192
25.8127	180
25.8201	168
25.8275	198
25.8349	175
25.8423	198
25.8497	185
25.8571	175
25.8645	163
25.8719	184
25.8793	156
25.8867	160
25.8941	158
25.9015	171
25.9089	164
25.9163	175
25.9237	169
25.9311	161
25.9385	185
25.9459	147
25.9532	152
25.9606	168
25.9680	152
25.9754	161
25.9828	150
25.9902	178
25.9976	149
26.0050	154
26.0124	164
26.0198	154
26.0272	158
26.0346	161
26.0420	160
26.0494	154
26.0568	171
26.0642	176
26.0716	152
26.0790	162
26.0864	177
26.0938	162
26.1012	183
26.1085	182
26.1159	166
26.1233	185
26.1307	173
26.1381	180
26.1455	187
26.1529	164
26.1603	169
26.1677	182
26.1751	188
26.1825	161
26.1899	176
26.1973	202
26.2047	196
26.2121	199
26.2195	194
26.2269	210
26.2343	213
26.2417	202
26.2491	214
26.2565	208
26.2638	203
26.2712	231
26.2786	227
26.2860	241
26.2934	231
26.3008	228
26.3082	246
26.3156	277
26.3230	256
26.3304	271
26.3378	268
26.3452	283
26.3526	277
26.3600	321
26.3674	305
26.3748	301
26.3822	326
26.3896	367
26.3970	347
26.4044	367
26.4118	434
26.4191	402
26.4265	483
26.4339	482
26.4413	528
26.4487	605
26.4561	604
26.4635	712
26.4709	765
26.4783	819
26.4857	922
26.4931	1079
26.5005	1286
26.5079	1405
26.5153	1643
26.5227	1827
26.5301	2088
26.5375	2512
26.5449	2676
26.5523	2849
26.5597	3111
26.5671	3119
26.5744	3032
26.5818	2994
26.5892	2750
26.5966	2674
26.6040	2641
26.6114	2516
26.6188	2483
26.6262	2323
26.6336	2149
26.6410	2074
26.6484	1832
26.6558	1665
26.6632	1506
26.6706	1265
26.6780	1137
26.6854	1044
26.6928	925
26.7002	834
26.7076	761
26.7150	690
26.7224	668
26.7297	560
26.7371	512
26.7445	481
26.7519	451
26.7593	424
26.7667	444
26.7741	432
26.7815	357
26.7889	359
26.7963	329
26.8037	325
26.8111	324
26.8185	296
26.8259	299
26.8333	319
26.8407	296
26.8481	310
26.8555	289
26.8629	262
26.8703	244
26.8777	230
26.8850	239
26.8924	237
26.8998	255
26.9072	230
26.9146	238
26.9220	216
26.9294	214
26.9368	206
26.9442	231
26.9516	218
26.9590	205
26.9664	178
26.9738	205
26.9812	180
26.9886	204
26.9960	198
27.0034	200
27.0108	207
27.0182	178
27.0256	189
27.0330	181
27.0404	189
27.0477	190
27.0551	194
27.0625	180
27.0699	189
27.0773	193
27.0847	197
27.0921	202
27.0995	188
27.1069	193
27.1143	208
27.1217	185
27.1291	195
27.1365	176
27.1439	191
27.1513	186
27.1587	198
27.1661	184
27.1735	171
27.1809	168
27.1883	175
27.1957	195
27.2030	150
27.2104	216
27.2178	184
27.2252	210
27.2326	222
27.2400	254
27.2474	230
27.2548	230
27.2622	249
27.2696	238
27.2770	268
27.2844	282
27.2918	290
27.2992	327
27.3066	363
27.3140	322
27.3214	361
27.3288	342
27.3362	372
27.3436	397
27.3510	333
27.3583	381
27.3657	360
27.3731	351
27.3805	320
27.3879	344
27.3953	279
27.4027	319
27.4101	288
27.4175	263
27.4249	258
27.4323	249
27.4397	245
27.4471	214
27.4545	232
27.4619	228
27.4693	208
27.4767	217
27.4841	212
27.4915	197
27.4989	178
27.5063	203
27.5136	194
27.5210	211
27.5284	184
27.5358	212
27.5432	202
27.5506	200
27.5580	185
27.5654	201
27.5728	206
27.5802	202
27.5876	194
27.5950	189
27.6024	190
27.6098	210
27.6172	242
27.6246	222
27.6320	192
27.6394	251
27.6468	260
27.6542	233
27.6616	223
27.6689	249
27.6763	213
27.6837	247
27.6911	252
27.6985	284
27.7059	303
27.7133	276
27.7207	294
27.7281	318
27.7355	316
27.7429	341
27.7503	372
27.7577	401
27.7651	397
27.7725	409
27.7799	465
27.7873	535
27.7947	568
27.8021	658
27.8095	684
27.8169	935
27.8242	925
27.8316	1055
27.8390	1253
27.8464	1321
27.8538	1359
27.8612	1445
27.8686	1456
27.8760	1503
27.8834	1406
27.8908	1484
27.8982	1321
27.9056	1297
27.9130	1158
27.9204	1181
27.9278	1204
27.9352	1094
27.9426	1027
27.9500	1009
27.9574	1013
27.9648	909
27.9722	815
27.9795	836
27.9869	772
27.9943	838
28.0017	733
28.0091	805
28.0165	805
28.0239	786
28.0313	779
28.0387	736
28.0461	688
28.0535	661
28.0609	618
28.0683	646
28.0757	666
28.0831	582
28.0905	562
28.0979	540
28.1053	475
28.1127	480
28.1201	463
28.1275	410
28.1348	439
28.1422	390
28.1496	389
28.1570	362
28.1644	344
28.1718	345
28.1792	373
28.1866	396
28.1940	360
28.2014	374
28.2088	356
28.2162	416
28.2236	395
28.2310	387
28.2384	329
28.2458	325
28.2532	297
28.2606	331
28.2680	305
28.2754	289
28.2828	286
28.2901	266
28.2975	226
28.3049	235
28.3123	236
28.3197	213
28.3271	203
28.3345	208
28.3419	177
28.3493	203
28.3567	172
28.3641	168
28.3715	178
28.3789	169
28.3863	184
28.3937	160
28.4011	167
28.4085	183
28.4159	161
28.4233	166
28.4307	140
28.4381	155
28.4454	129
28.4528	141
28.4602	148
28.4676	125
28.4750	146
28.4824	149
28.4898	148
28.4972	138
28.5046	148
28.5120	155
28.5194	152
28.5268	149
28.5342	149
28.5416	136
28.5490	128
28.5564	137
28.5638	159
28.5712	158
28.5786	122
28.5860	129
28.5934	138
28.6008	145
28.6081	132
28.6155	133
28.6229	139
28.6303	129
28.6377	143
28.6451	122
28.6525	141
28.6599	121
28.6673	114
28.6747	151
28.6821	131
28.6895	140
28.6969	145
28.7043	148
28.7117	120
28.7191	135
28.7265	120
28.7339	138
28.7413	122
28.7487	134
28.7561	115
28.7634	123
28.7708	131
28.7782	131
28.7856	126
28.7930	124
28.8004	135
28.8078	129
28.8152	130
28.8226	108
28.8300	127
28.8374	133
28.8448	135
28.8522	117
28.8596	114
28.8670	120
28.8744	119
28.8818	122
28.8892	140
28.8966	112
28.9040	142
28.9114	126
28.9187	115
28.9261	129
28.9335	124
28.9409	127
28.9483	119
28.9557	119
28.9631	131
28.9705	142
28.9779	116
28.9853	140
28.9927	143
29.0001	129
29.0075	113
29.0149	116
29.0223	130
29.0297	118
29.0371	138
29.0445	130
29.0519	123
29.0593	122
29.0667	117
29.0740	117
29.0814	127
29.0888	114
29.0962	130
29.1036	119
29.1110	116
29.1184	123
29.1258	117
29.1332	113
29.1406	117
29.1480	121
29.1554	129
29.1628	119
29.1702	136
29.1776	111
29.1850	134
29.1924	148
29.1998	128
29.2072	121
29.2146	119
29.2220	121
29.2293	124
29.2367	125
29.2441	142
29.2515	111
29.2589	111
29.2663	128
29.2737	106
29.2811	135
29.2885	130
29.2959	113
29.3033	139
29.3107	141
29.3181	139
29.3255	160
29.3329	148
29.3403	173
29.3477	160
29.3551	166
29.3625	196
29.3699	194
29.3773	195
29.3846	190
29.3920	205
29.3994	224
29.4068	227
29.4142	210
29.4216	227
29.4290	252
29.4364	243
29.4438	261
29.4512	233
29.4586	232
29.4660	245
29.4734	269
29.4808	240
29.4882	225
29.4956	204
29.5030	223
29.5104	229
29.5178	198
29.5252	198
29.5326	189
29.5399	193
29.5473	188
29.5547	187
29.5621	173
29.5695	176
29.5769	180
29.5843	162
29.5917	193
29.5991	180
29.6065	171
29.6139	168
29.6213	168
29.6287	176
29.6361	162
29.6435	154
29.6509	185
29.6583	193
29.6657	210
29.6731	238
29.6805	232
29.6879	257
29.6952	261
29.7026	279
29.7100	249
29.7174	257
29.7248	284
29.7322	272
29.7396	270
29.7470	268
29.7544	249
29.7618	245
29.7692	230
29.7766	253
29.7840	241
29.7914	234
29.7988	259
29.8062	194
29.8136	217
29.8210	212
29.8284	220
29.8358	179
29.8432	193
29.8505	201
29.8579	200
29.8653	168
29.8727	176
29.8801	151
29.8875	150
29.8949	157
29.9023	146
29.9097	157
29.9171	162
29.9245	164
29.9319	172
29.9393	172
29.9467	148
29.9541	172
29.9615	197
29.9689	202
29.9763	206
29.9837	193
29.9911	218
29.9985	246
30.0058	256
30.0132	279
30.0206	314
30.0280	312
30.0354	326
30.0428	369
30.0502	392
30.0576	390
30.0650	350
30.0724	307
30.0798	328
30.0872	306
30.0946	317
30.1020	299
30.1094	311
30.1168	321
30.1242	299
30.1316	286
30.1390	313
30.1464	323
30.1538	267
30.1612	301
30.1685	270
30.1759	258
30.1833	245
30.1907	233
30.1981	261
30.2055	244
30.2129	240
30.2203	231
30.2277	229
30.2351	238
30.2425	254
30.2499	261
30.2573	242
30.2647	267
30.2721	249
30.2795	251
30.2869	264
30.2943	242
30.3017	262
30.3091	281
30.3165	327
30.3238	287
30.3312	361
30.3386	359
30.3460	386
30.3534	378
30.3608	411
30.3682	409
30.3756	483
30.3830	441
30.3904	425
30.3978	512
30.4052	531
30.4126	540
30.4200	556
30.4274	582
30.4348	577
30.4422	530
30.4496	477
30.4570	509
30.4644	437
30.4718	476
30.4791	397
30.4865	414
30.4939	374
30.5013	392
30.5087	373
30.5161	359
30.5235	314
30.5309	286
30.5383	309
30.5457	249
30.5531	237
30.5605	233
30.5679	218
30.5753	218
30.5827	200
30.5901	190
30.5975	208
30.6049	215
30.6123	218
30.6197	209
30.6271	216
30.6344	234
30.6418	223
30.6492	259
30.6566	220
30.6640	248
30.6714	232
30.6788	235
30.6862	222
30.6936	217
30.7010	229
30.7084	211
30.7158	211
30.7232	212
30.7306	222
30.7380	177
30.7454	198
30.7528	197
30.7602	190
30.7676	174
30.7750	206
30.7824	151
30.7897	176
30.7971	161
30.8045	172
30.8119	158
30.8193	173
30.8267	157
30.8341	179
30.8415	165
30.8489	150
30.8563	167
30.8637	189
30.8711	175
30.8785	208
30.8859	208
30.8933	197
30.9007	195
30.9081	202
30.9155	202
30.9229	170
30.9303	192
30.9377	173
30.9450	176
30.9524	174
30.9598	166
30.9672	167
30.9746	163
30.9820	155
30.9894	161
30.9968	138
31.0042	163
31.0116	136
31.0190	110
31.0264	132
31.0338	111
31.0412	125
31.0486	121
31.0560	110
31.0634	120
31.0708	126
31.0782	102
31.0856	94
31.0930	123
31.1003	112
31.1077	106
31.1151	115
31.1225	118
31.1299	99
31.1373	105
31.1447	114
31.1521	114
31.1595	105
31.1669	138
31.1743	114
31.1817	114
31.1891	101
31.1965	114
31.2039	100
31.2113	113
31.2187	115
31.2261	104
31.2335	113
31.2409	90
31.2483	102
31.2556	133
31.2630	115
31.2704	115
31.2778	100
31.2852	128
31.2926	104
31.3000	103
31.3074	89
31.3148	131
31.3222	111
31.3296	110
31.3370	98
31.3444	119
31.3518	105
31.3592	118
31.3666	111
31.3740	104
31.3814	112
31.3888	86
31.3962	101
31.4036	88
31.4109	93
31.4183	94
31.4257	105
31.4331	90
31.4405	101
31.4479	103
31.4553	86
31.4627	108
31.4701	85
31.4775	78
31.4849	91
31.4923	105
31.4997	89
31.5071	88
31.5145	98
31.5219	101
31.5293	102
31.5367	94
31.5441	116
31.5515	84
31.5589	119
31.5662	90
31.5736	110
31.5810	87
31.5884	99
31.5958	103
31.6032	99
31.6106	102
31.6180	88
31.6254	89
31.6328	100
31.6402	104
31.6476	90
31.6550	108
31.6624	118
31.6698	94
31.6772	87
31.6846	80
31.6920	95
31.6994	120
31.7068	108
31.7142	101
31.7215	107
31.7289	90
31.7363	99
31.7437	120
31.7511	96
31.7585	103
31.7659	116
31.7733	100
31.7807	86
31.7881	119
31.7955	110
31.8029	120
31.8103	95
31.8177	104
31.8251	99
31.8325	107
31.8399	113
31.8473	115
31.8547	98
31.8621	120
31.8695	123
31.8769	110
31.8842	113
31.8916	129
31.8990	139
31.9064	137
31.9138	138
31.9212	143
31.9286	146
31.9360	140
31.9434	182
31.9508	192
31.9582	189
31.9656	230
31.9730	229
31.9804	226
31.9878	235
31.9952	245
32.0026	255
32.0100	219
32.0174	249
32.0248	201
32.0322	217
32.0395	209
32.0469	189
32.0543	201
32.0617	178
32.0691	243
32.0765	210
32.0839	181
32.0913	174
32.0987	185
32.1061	156
32.1135	159
32.1209	134
32.1283	117
32.1357	150
32.1431	108
32.1505	103
32.1579	137
32.1653	110
32.1727	102
32.1801	110
32.1875	130
32.1948	101
32.2022	100
32.2096	113
32.2170	94
32.2244	91
32.2318	113
32.2392	117
32.2466	99
32.2540	118
32.2614	104
32.2688	103
32.2762	77
32.2836	108
32.2910	80
32.2984	91
32.3058	101
32.3132	97
32.3206	79
32.3280	71
32.3354	98
32.3428	94
32.3501	94
32.3575	105
32.3649	90
32.3723	90
32.3797	112
32.3871	85
32.3945	91
32.4019	91
32.4093	90
32.4167	83
32.4241	101
32.4315	98
32.4389	90
32.4463	114
32.4537	79
32.4611	77
32.4685	88
32.4759	87
32.4833	99
32.4907	70
32.4981	71
32.5054	80
32.5128	82
32.5202	98
32.5276	93
32.5350	72
32.5424	90
32.5498	83
32.5572	87
32.5646	97
32.5720	98
32.5794	87
32.5868	94
32.5942	82
32.6016	74
32.6090	85
32.6164	96
32.6238	97
32.6312	88
32.6386	91
32.6460	79
32.6534	90
32.6607	86
32.6681	98
32.6755	84
32.6829	85
32.6903	93
32.6977	82
32.7051	76
32.7125	92
32.7199	84
32.7273	90
32.7347	81
32.7421	94
32.7495	96
32.7569	87
32.7643	85
32.7717	90
32.7791	91
32.7865	75
32.7939	88
32.8013	93
32.8087	97
32.8160	80
32.8234	72
32.8308	89
32.8382	95
32.8456	103
32.8530	78
32.8604	90
32.8678	88
32.8752	98
32.8826	86
32.8900	81
32.8974	118
32.9048	73
32.9122	90
32.9196	85
32.9270	85
32.9344	74
32.9418	79
32.9492	90
32.9566	84
32.9640	78
32.9713	77
32.9787	75
32.9861	75
32.9935	79
33.0009	85
33.0083	101
33.0157	80
33.0231	94
33.0305	79
33.0379	98
33.0453	90
33.0527	98
33.0601	92
33.0675	104
33.0749	81
33.0823	87
33.0897	79
33.0971	74
33.1045	109
33.1119	95
33.1193	90
33.1266	84
33.1340	77
33.1414	110
33.1488	80
33.1562	99
33.1636	102
33.1710	103
33.1784	91
33.1858	101
33.1932	85
33.2006	99
33.2080	88
33.2154	90
33.2228	83
33.2302	85
33.2376	106
33.2450	101
33.2524	75
33.2598	98
33.2672	93
33.2746	84
33.2819	88
33.2893	95
33.2967	96
33.3041	104
33.3115	97
33.3189	92
33.3263	88
33.3337	90
33.3411	93
33.3485	96
33.3559	103
33.3633	97
33.3707	89
33.3781	79
33.3855	101
33.3929	80
33.4003	78
33.4077	70
33.4151	85
33.4225	85
33.4299	99
33.4373	92
33.4446	78
33.4520	70
33.4594	81
33.4668	79
33.4742	99
33.4816	91
33.4890	92
33.4964	82
33.5038	76
33.5112	104
33.5186	81
33.5260	91
33.5334	86
33.5408	98
33.5482	86
33.5556	90
33.5630	95
33.5704	78
33.5778	73
33.5852	94
33.5926	94
33.5999	89
33.6073	81
33.6147	80
33.6221	103
33.6295	95
33.6369	74
33.6443	89
33.6517	84
33.6591	82
33.6665	105
33.6739	110
33.6813	110
33.6887	105
33.6961	114
33.7035	118
33.7109	102
33.7183	115
33.7257	106
33.7331	96
33.7405	113
33.7479	105
33.7552	110
33.7626	93
33.7700	109
33.7774	112
33.7848	111
33.7922	89
33.7996	106
33.8070	106
33.8144	114
33.8218	103
33.8292	112
33.8366	95
33.8440	115
33.8514	106
33.8588	101
33.8662	97
33.8736	92
33.8810	95
33.8884	92
33.8958	93
33.9032	111
33.9105	103
33.9179	104
33.9253	99
33.9327	93
33.9401	80
33.9475	97
33.9549	97
33.9623	94
33.9697	97
33.9771	104
33.9845	93
33.9919	85
33.9993	70
34.0067	95
34.0141	97
34.0215	84
34.0289	94
34.0363	88
34.0437	87
34.0511	87
34.0585	77
34.0658	78
34.0732	79
34.0806	85
34.0880	95
34.0954	88
34.1028	87
34.1102	102
34.1176	90
34.1250	98
34.1324	96
34.1398	81
34.1472	95
34.1546	92
34.1620	93
34.1694	78
34.1768	66
34.1842	74
34.1916	84
34.1990	88
34.2064	71
34.2138	82
34.2211	93
34.2285	88
34.2359	92
34.2433	75
34.2507	85
34.2581	86
34.2655	80
34.2729	72
34.2803	88
34.2877	101
34.2951	89
34.3025	89
34.3099	86
34.3173	82
34.3247	104
34.3321	76
34.3395	85
34.3469	88
34.3543	87
34.3617	83
34.3691	78
34.3764	81
34.3838	78
34.3912	87
34.3986	86
34.4060	92
34.4134	93
34.4208	93
34.4282	82
34.4356	88
34.4430	96
34.4504	80
34.4578	77
34.4652	80
34.4726	83
34.4800	82
34.4874	77
34.4948	95
34.5022	83
34.5096	91
34.5170	105
34.5244	81
34.5317	97
34.5391	79
34.5465	100
34.5539	86
34.5613	84
34.5687	109
34.5761	107
34.5835	124
34.5909	111
34.5983	110
34.6057	119
34.6131	135
34.6205	132
34.6279	109
34.6353	104
34.6427	118
34.6501	86
34.6575	113
34.6649	96
34.6723	99
34.6797	111
34.6870	113
34.6944	113
34.7018	119
34.7092	85
34.7166	114
34.7240	91
34.7314	93
34.7388	99
34.7462	121
34.7536	103
34.7610	86
34.7684	90
34.7758	95
34.7832	87
34.7906	95
34.7980	91
34.8054	94
34.8128	96
34.8202	104
34.8276	102
34.8350	87
34.8423	87
34.8497	92
34.8571	94
34.8645	108
34.8719	102
34.8793	101
34.8867	96
34.8941	102
34.9015	100
34.9089	88
34.9163	95
34.9237	81
34.9311	86
34.9385	79
34.9459	87
34.9533	101
34.9607	87
34.9681	99
34.9755	97
34.9829	96
34.9903	96
34.9977	82
35.0050	96
35.0124	101
35.0198	86
35.0272	94
35.0346	69
35.0420	90
35.0494	84
35.0568	83
35.0642	95
35.0716	89
35.0790	86
35.0864	97
35.0938	83
35.1012	94
35.1086	89
35.1160	88
35.1234	92
35.1308	94
35.1382	85
35.1456	79
35.1530	89
35.1603	76
35.1677	73
35.1751	70
35.1825	77
35.1899	96
35.1973	94
35.2047	103
35.2121	80
35.2195	89
35.2269	92
35.2343	89
35.2417	85
35.2491	91
35.2565	92
35.2639	64
35.2713	93
35.2787	93
35.2861	73
35.2935	82
35.3009	75
35.3083	97
35.3156	73
35.3230	85
35.3304	85
35.3378	87
35.3452	84
35.3526	79
35.3600	104
35.3674	87
35.3748	87
35.3822	98
35.3896	72
35.3970	94
35.4044	88
35.4118	90
35.4192	96
35.4266	89
35.4340	75
35.4414	98
35.4488	101
35.4562	84
35.4636	92
35.4709	91
35.4783	92
35.4857	86
35.4931	85
35.5005	91
35.5079	110
35.5153	81
35.5227	102
35.5301	81
35.5375	94
35.5449	105
35.5523	81
35.5597	101
35.5671	103
35.5745	120
35.5819	116
35.5893	101
35.5967	99
35.6041	108
35.6115	102
35.6189	108
35.6262	104
35.6336	110
35.6410	91
35.6484	95
35.6558	104
35.6632	92
35.6706	109
35.6780	118
35.6854	115
35.6928	135
35.7002	128
35.7076	116
35.7150	110
35.7224	132
35.7298	134
35.7372	130
35.7446	130
35.7520	119
35.7594	123
35.7668	135
35.7742	128
35.7815	127
35.7889	113
35.7963	130
35.8037	164
35.8111	179
35.8185	147
35.8259	161
35.8333	152
35.8407	189
35.8481	173
35.8555	197
35.8629	232
35.8703	228
35.8777	211
35.8851	194
35.8925	206
35.8999	184
35.9073	206
35.9147	204
35.9221	184
35.9295	201
35.9368	202
35.9442	207
35.9516	181
35.9590	188
35.9664	198
35.9738	156
35.9812	176
35.9886	149
35.9960	160
36.0034	145
36.0108	141
36.0182	140
36.0256	141
36.0330	130
36.0404	133
36.0478	106
36.0552	109
36.0626	131
36.0700	138
36.0774	109
36.0848	124
36.0921	87
36.0995	110
36.1069	116
36.1143	108
36.1217	124
36.1291	114
36.1365	117
36.1439	124
36.1513	111
36.1587	129
36.1661	116
36.1735	128
36.1809	111
36.1883	105
36.1957	120
36.2031	115
36.2105	135
36.2179	109
36.2253	109
36.2327	129
36.2401	113
36.2474	115
36.2548	111
36.2622	134
36.2696	114
36.2770	115
36.2844	120
36.2918	90
36.2992	129
36.3066	111
36.3140	122
36.3214	126
36.3288	103
36.3362	104
36.3436	127
36.3510	123
36.3584	121
36.3658	120
36.3732	115
36.3806	120
36.3880	140
36.3954	110
36.4027	114
36.4101	113
36.4175	152
36.4249	151
36.4323	154
36.4397	139
36.4471	147
36.4545	137
36.4619	137
36.4693	148
36.4767	128
36.4841	129
36.4915	127
36.4989	141
36.5063	123
36.5137	106
36.5211	140
36.5285	111
36.5359	129
36.5433	108
36.5507	135
36.5580	121
36.5654	123
36.5728	118
36.5802	123
36.5876	118
36.5950	129
36.6024	121
36.6098	97
36.6172	131
36.6246	125
36.6320	126
36.6394	141
36.6468	140
36.6542	149
36.6616	139
36.6690	111
36.6764	122
36.6838	120
36.6912	118
36.6986	99
36.7060	121
36.7134	121
36.7207	141
36.7281	123
36.7355	139
36.7429	113
36.7503	106
36.7577	117
36.7651	122
36.7725	114
36.7799	100
36.7873	109
36.7947	98
36.8021	109
36.8095	90
36.8169	76
36.8243	86
36.8317	111
36.8391	95
36.8465	95
36.8539	87
36.8613	91
36.8687	84
36.8760	78
36.8834	92
36.8908	75
36.8982	85
36.9056	93
36.9130	99
36.9204	86
36.9278	91
36.9352	83
36.9426	82
36.9500	84
36.9574	100
36.9648	87
36.9722	77
36.9796	74
36.9870	99
36.9944	77
37.0018	79
37.0092	75
37.0166	62
37.0240	81
37.0313	82
37.0387	83
37.0461	81
37.0535	69
37.0609	70
37.0683	85
37.0757	82
37.0831	90
37.0905	79
37.0979	66
37.1053	99
37.1127	77
37.1201	76
37.1275	95
37.1349	90
37.1423	93
37.1497	104
37.1571	70
37.1645	90
37.1719	89
37.1793	99
37.1866	98
37.1940	81
37.2014	91
37.2088	96
37.2162	95
37.2236	97
37.2310	89
37.2384	85
37.2458	85
37.2532	100
37.2606	88
37.2680	90
37.2754	71
37.2828	94
37.2902	73
37.2976	80
37.3050	91
37.3124	99
37.3198	103
37.3272	80
37.3346	105
37.3419	91
37.3493	91
37.3567	92
37.3641	94
37.3715	107
37.3789	78
37.3863	92
37.3937	91
37.4011	92
37.4085	88
37.4159	109
37.4233	92
37.4307	107
37.4381	92
37.4455	88
37.4529	66
37.4603	102
37.4677	103
37.4751	94
37.4825	84
37.4899	96
37.4972	97
37.5046	96
37.5120	104
37.5194	101
37.5268	89
37.5342	87
37.5416	83
37.5490	84
37.5564	91
37.5638	84
37.5712	90
37.5786	95
37.5860	84
37.5934	81
37.6008	72
37.6082	86
37.6156	72
37.6230	86
37.6304	96
37.6378	86
37.6452	85
37.6525	105
37.6599	86
37.6673	90
37.6747	60
37.6821	94
37.6895	73
37.6969	82
37.7043	105
37.7117	95
37.7191	99
37.7265	97
37.7339	99
37.7413	97
37.7487	87
37.7561	80
37.7635	95
37.7709	93
37.7783	95
37.7857	103
37.7931	91
37.8005	100
37.8078	124
37.8152	73
37.8226	101
37.8300	96
37.8374	127
37.8448	111
37.8522	123
37.8596	109
37.8670	111
37.8744	104
37.8818	115
37.8892	102
37.8966	120
37.9040	105
37.9114	103
37.9188	114
37.9262	108
37.9336	108
37.9410	94
37.9484	116
37.9558	110
37.9631	110
37.9705	127
37.9779	120
37.9853	126
37.9927	118
38.0001	141
38.0075	145
38.0149	142
38.0223	146
38.0297	135
38.0371	145
38.0445	109
38.0519	116
38.0593	123
38.0667	130
38.0741	138
38.0815	127
38.0889	144
38.0963	107
38.1037	89
38.1111	110
38.1184	137
38.1258	122
38.1332	115
38.1406	120
38.1480	131
38.1554	102
38.1628	122
38.1702	138
38.1776	111
38.1850	114
38.1924	106
38.1998	99
38.2072	114
38.2146	119
38.2220	109
38.2294	98
38.2368	124
38.2442	110
38.2516	116
38.2590	115
38.2664	132
38.2738	112
38.2811	156
38.2885	124
38.2959	143
38.3033	148
38.3107	126
38.3181	141
38.3255	131
38.3329	153
38.3403	169
38.3477	129
38.3551	150
38.3625	148
38.3699	161
38.3773	144
38.3847	152
38.3921	153
38.3995	172
38.4069	137
38.4143	144
38.4217	142
38.4291	128
38.4364	130
38.4438	138
38.4512	144
38.4586	157
38.4660	144
38.4734	136
38.4808	125
38.4882	135
38.4956	127
38.5030	133
38.5104	135
38.5178	166
38.5252	152
38.5326	154
38.5400	162
38.5474	188
38.5548	186
38.5622	162
38.5696	187
38.5770	180
38.5844	209
38.5917	173
38.5991	148
38.6065	153
38.6139	151
38.6213	170
38.6287	153
38.6361	149
38.6435	161
38.6509	158
38.6583	145
38.6657	127
38.6731	151
38.6805	128
38.6879	132
38.6953	133
38.7027	129
38.7101	103
38.7175	130
38.7249	102
38.7323	92
38.7397	108
38.7470	101
38.7544	104
38.7618	100
38.7692	98
38.7766	94
38.7840	90
38.7914	97
38.7988	90
38.8062	82
38.8136	80
38.8210	85
38.8284	89
38.8358	95
38.8432	92
38.8506	91
38.8580	84
38.8654	81
38.8728	94
38.8802	74
38.8876	76
38.8950	75
38.9023	81
38.9097	100
38.9171	88
38.9245	89
38.9319	84
38.9393	90
38.9467	101
38.9541	98
38.9615	102
38.9689	104
38.9763	96
38.9837	83
38.9911	90
38.9985	88
39.0059	89
39.0133	92
39.0207	102
39.0281	91
39.0355	76
39.0429	87
39.0503	94
39.0576	81
39.0650	86
39.0724	92
39.0798	97
39.0872	94
39.0946	87
39.1020	80
39.1094	112
39.1168	113
39.1242	94
39.1316	104
39.1390	109
39.1464	107
39.1538	119
39.1612	96
39.1686	113
39.1760	95
39.1834	100
39.1908	102
39.1982	104
39.2056	100
39.2129	107
39.2203	105
39.2277	108
39.2351	117
39.2425	139
39.2499	118
39.2573	131
39.2647	142
39.2721	135
39.2795	150
39.2869	159
39.2943	185
39.3017	189
39.3091	154
39.3165	191
39.3239	166
39.3313	169
39.3387	157
39.3461	152
39.3535	141
39.3609	166
39.3682	144
39.3756	154
39.3830	138
39.3904	129
39.3978	124
39.4052	145
39.4126	128
39.4200	139
39.4274	140
39.4348	124
39.4422	121
39.4496	142
39.4570	130
39.4644	117
39.4718	116
39.4792	118
39.4866	126
39.4940	106
39.5014	96
39.5088	111
39.5162	93
39.5235	113
39.5309	99
39.5383	112
39.5457	105
39.5531	101
39.5605	98
39.5679	100
39.5753	98
39.5827	104
39.5901	108
39.5975	96
39.6049	73
39.6123	92
39.6197	100
39.6271	96
39.6345	92
39.6419	101
39.6493	97
39.6567	101
39.6641	97
39.6715	89
39.6788	102
39.6862	82
39.6936	103
39.7010	92
39.7084	97
39.7158	98
39.7232	98
39.7306	107
39.7380	94
39.7454	97
39.7528	88
39.7602	88
39.7676	103
39.7750	111
39.7824	103
39.7898	99
39.7972	91
39.8046	95
39.8120	99
39.8194	83
39.8268	87
39.8342	81
39.8415	104
39.8489	90
39.8563	80
39.8637	108
39.8711	100
39.8785	89
39.8859	95
39.8933	121
39.9007	102
39.9081	84
39.9155	95
39.9229	95
39.9303	102
39.9377	105
39.9451	105
39.9525	97
39.9599	110
39.9673	96
39.9747	104
39.9821	114
39.9895	121
39.9968	127
