##TITLE= Amostra 010 por Administrator data segunda-feira, julho 16 2012
##JCAMP-DX= 4.24
##DATA TYPE= INFRARED SPECTRUM
##ORIGIN= Exported PE Spectrum Data File
##OWNER= Administrator
##DATE= 12/07/16
##TIME= 09:15:37.00
##SPECTROMETER/DATA SYSTEM= PERKIN-ELMER Spectrum 100 IR
##INSTRUMENT PARAMETERS=
  APODIZATION=Forte
  DETECTOR=MIR TGS
##RESOLUTION= 4.000000
##DELTAX= -1.00
##XUNITS= 1/CM
##YUNITS= %T
##XFACTOR= 1.00
##YFACTOR= 0.00000023841857910156
##FIRSTX= 4000.00
##LASTX= 400.00
##NPOINTS= 3601
##FIRSTY= 65.292818
##MAXY= 75.202653
##MINY= 31.874735
##XYDATA= (X++(Y..Y))
  4000.000000   273857927   273796242   273727235   273669665   273614401  
  3995.000000   273541511   273459210   273400262   273375881   273360207  
  3990.000000   273331799   273301288   273279208   273245758   273182313  
  3985.000000   273111380   273071477   273063662   273049791   272999694  
  3980.000000   272918472   272826040   272734400   272658598   272621723  
  3975.000000   272624894   272634514   272620288   272592489   272573251  
  3970.000000   272564917   272555158   272528750   272471134   272376449  
  3965.000000   272267025   272180075   272130521   272097054   272061200  
  3960.000000   272036150   272017568   271975994   271909628   271848742  
  3955.000000   271801426   271726319   271599423   271450354   271340416  
  3950.000000   271310680   271329446   271312523   271232079   271159287  
  3945.000000   271148846   271167738   271149883   271088014   271066719  
  3940.000000   271137214   271166066   271004815   270711270   270467336  
  3935.000000   270362965   270340121   270370888   270488338   270637686  
  3930.000000   270668501   270505992   270273612   270145086   270115272  
  3925.000000   270039935   269893954   269838633   269904070   269881913  
  3920.000000   269718337   269661963   269856698   270081296   270093485  
  3915.000000   269983314   269934363   269895211   269752683   269516197  
  3910.000000   269257745   268994335   268686566   268370933   268155822  
  3905.000000   268119236   268194764   268332210   268643283   269099837  
  3900.000000   269345181   269145884   268738291   268469140   268332778  
  3895.000000   268116788   267894679   267958536   268245483   268185420  
  3890.000000   267688536   267438554   267606059   267733536   267527627  
  3885.000000   267075744   266851306   267170537   267606405   267706224  
  3880.000000   267407637   266950105   266803359   266954773   266928670  
  3875.000000   266524855   265943396   265684452   266090871   266722370  
  3870.000000   266731147   266014061   265612294   266006631   266273882  
  3865.000000   265940437   265603278   265671078   265836541   265697358  
  3860.000000   265310838   264917590   264481432   263894349   263365870  
  3855.000000   263536267   264650175   265107912   264035226   263515561  
  3850.000000   264062967   264380152   264179869   263867966   263663143  
  3845.000000   263484882   263244019   262965366   262811837   262863414  
  3840.000000   263007134   263140694   263175308   263015307   262748407  
  3835.000000   262623156   262720176   262855119   262767378   262452273  
  3830.000000   262200596   262201765   262274471   262072729   261522364  
  3825.000000   260997694   260844780   260958091   261124019   260982695  
  3820.000000   260410058   260358954   261036356   261440615   261098670  
  3815.000000   260379201   260108526   260382709   260389997   259867843  
  3810.000000   259366746   259334046   259575464   259464553   258856031  
  3805.000000   258500506   258751416   259058398   259041201   258548796  
  3800.000000   257976879   258097224   258501840   258459791   258067888  
  3795.000000   257777920   257776622   257794196   257577338   257239035  
  3790.000000   256981087   256793228   256596795   256428513   256334328  
  3785.000000   256196085   255915177   255636826   255522850   255491631  
  3780.000000   255408008   255228917   255059306   255051372   255050109  
  3775.000000   254765668   254259803   253885256   253795645   253785180  
  3770.000000   253601119   253309347   253230829   253377369   253339715  
  3765.000000   252923496   252448572   252283966   252259816   251995520  
  3760.000000   251611684   251434061   251371721   251143053   250736807  
  3755.000000   250300069   249827554   249362402   249289856   249738397  
  3750.000000   249904580   249360924   248906345   249051603   249429391  
  3745.000000   249533873   248770343   247596601   247407515   247718041  
  3740.000000   247354809   246520997   245916471   245792049   245918036  
  3735.000000   246092694   246302894   246408724   246107731   245539811  
  3730.000000   245216978   245214527   245121137   244718412   244247877  
  3725.000000   244029012   243998664   243826750   243445736   243057791  
  3720.000000   242807682   242606760   242283124   241854044   241483671  
  3715.000000   241202705   240887031   240601896   240569154   240617755  
  3710.000000   240395808   240006792   239661642   239336166   238982781  
  3705.000000   238628899   238293826   237968005   237609204   237160052  
  3700.000000   236732682   236495989   236298008   235885729   235320574  
  3695.000000   234844404   234472924   233973665   233288249   232681435  
  3690.000000   232347251   231988380   231311625   230745467   230700385  
  3685.000000   230813561   230612498   230135807   229660054   229229659  
  3680.000000   228635545   227905356   227341080   227031551   226671019  
  3675.000000   225741307   224770337   224809874   225121995   224633729  
  3670.000000   223588188   222562294   221993651   221901616   221778992  
  3665.000000   221353238   220759133   220152503   219531254   218868664  
  3660.000000   218228785   217702693   217245474   216694171   215935768  
  3655.000000   215208039   214874720   214628678   213837064   212606273  
  3650.000000   211727550   211347646   210793688   209986725   209466393  
  3645.000000   209370892   209332932   209007008   208412188   207806564  
  3640.000000   207317405   206839306   206262389   205681934   205197269  
  3635.000000   204703151   204094944   203514367   203124018   202689675  
  3630.000000   201887622   200717308   199418324   198664677   198707018  
  3625.000000   198794631   198480797   197944310   197372760   196712378  
  3620.000000   195899782   195035755   194317688   193938444   193798153  
  3615.000000   193531135   192978666   192327406   191836233   191529729  
  3610.000000   191146354   190477207   189654621   188974743   188588931  
  3605.000000   188374782   188086406   187615683   187016814   186381995  
  3600.000000   185802872   185352582   184983357   184562972   184021999  
  3595.000000   183405955   182838986   182448259   182265324   182130052  
  3590.000000   181771600   181036755   180067204   179161568   178590301  
  3585.000000   178440633   178477944   178406875   178163354   177839244  
  3580.000000   177507082   177179057   176843662   176493055   176137167  
  3575.000000   175789372   175474753   175220628   175028178   174842297  
  3570.000000   174547032   174022690   173289574   172540232   171987974  
  3565.000000   171760360   171764805   171742072   171564684   171307577  
  3560.000000   171083066   170928081   170819622   170718085   170584502  
  3555.000000   170377478   170065042   169676504   169321157   169115517  
  3550.000000   169046445   168932321   168599269   168083934   167585502  
  3545.000000   167259986   167129675   167135026   167196755   167238493  
  3540.000000   167204025   167067861   166835270   166557965   166324693  
  3535.000000   166209156   166196841   166188747   166094140   165904614  
  3530.000000   165663868   165397028   165115558   164853295   164641015  
  3525.000000   164455221   164267942   164117556   164066873   164100717  
  3520.000000   164118570   164039468   163878460   163706943   163563308  
  3515.000000   163435225   163312778   163207089   163106135   162966675  
  3510.000000   162781474   162614348   162536760   162528852   162466659  
  3505.000000   162239172   161878435   161540432   161358570   161335394  
  3500.000000   161370261   161357398   161257775   161104089   160961492  
  3495.000000   160876532   160848686   160844182   160825504   160767360  
  3490.000000   160657808   160502198   160337089   160221985   160187486  
  3485.000000   160188597   160129278   159951060   159694853   159470973  
  3480.000000   159367084   159380991   159436405   159452778   159403750  
  3475.000000   159315091   159218398   159117799   158997864   158851302  
  3470.000000   158693741   158553152   158451380   158398695   158392727  
  3465.000000   158407767   158394352   158316869   158195770   158095716  
  3460.000000   158064089   158089191   158123451   158132682   158110886  
  3455.000000   158069455   158022908   157981286   157950340   157926858  
  3450.000000   157884824   157779345   157601559   157422290   157341553  
  3445.000000   157378671   157444344   157444817   157379947   157307206  
  3440.000000   157247328   157171839   157070421   156980242   156936940  
  3435.000000   156937051   156952650   156959054   156948139   156931529  
  3430.000000   156933952   156970982   157037847   157119792   157205101  
  3425.000000   157279829   157320208   157305366   157241668   157169840  
  3420.000000   157138825   157168338   157232953   157282459   157284844  
  3415.000000   157252105   157222900   157223679   157253135   157298783  
  3410.000000   157355114   157422071   157496047   157565170   157609857  
  3405.000000   157612700   157573632   157517889   157484471   157502447  
  3400.000000   157571857   157665637   157755055   157831702   157899031  
  3395.000000   157948477   157965236   157963308   157993784   158099229  
  3390.000000   158267520   158443638   158582149   158675635   158738788  
  3385.000000   158787124   158833060   158886500   158949589   159018114  
  3380.000000   159091200   159173196   159267228   159371582   159481121  
  3375.000000   159585794   159671101   159726793   159757169   159780078  
  3370.000000   159816884   159883397   159985728   160121212   160280495  
  3365.000000   160448429   160606274   160740417   160854196   160968885  
  3360.000000   161105451   161262976   161418556   161549473   161651403  
  3355.000000   161733246   161802337   161863559   161930331   162024625  
  3350.000000   162160384   162328210   162499356   162647177   162763623  
  3345.000000   162859138   162949916   163044643   163141723   163236712  
  3340.000000   163330025   163427637   163537472   163665223   163811328  
  3335.000000   163970040   164131593   164286330   164428679   164557155  
  3330.000000   164670059   164763659   164839068   164910521   164999636  
  3325.000000   165119068   165263226   165415163   165561077   165696554  
  3320.000000   165822114   165939735   166054277   166171427   166290635  
  3315.000000   166403354   166501785   166585718   166657857   166717754  
  3310.000000   166767070   166818009   166889488   166992741   167124477  
  3305.000000   167274633   167435608   167601842   167764466   167911063  
  3300.000000   168031017   168122840   168197452   168272894   168361854  
  3295.000000   168462272   168564675   168669149   168788400   168931537  
  3290.000000   169090516   169246311   169386769   169514355   169636966  
  3285.000000   169758204   169879121   170001199   170124774   170247528  
  3280.000000   170364087   170467783   170555037   170629309   170699793  
  3275.000000   170775031   170858975   170955020   171070733   171214763  
  3270.000000   171387963   171578740   171769042   171945028   172102272  
  3265.000000   172245146   172382716   172519715   172654008   172782754  
  3260.000000   172904862   173020113   173132599   173253056   173392882  
  3255.000000   173556531   173738647   173928295   174112594   174278391  
  3250.000000   174420105   174547358   174678891   174827231   174993260  
  3245.000000   175174896   175371922   175578435   175781803   175975269  
  3240.000000   176163359   176349727   176528115   176690988   176842969  
  3235.000000   177001794   177185024   177399163   177638148   177886421  
  3230.000000   178127391   178353774   178570615   178788862   179015500  
  3225.000000   179249828   179486975   179720267   179944050   180160222  
  3220.000000   180380273   180615656   180866725   181121268   181364243  
  3215.000000   181593996   181826530   182077686   182343455   182605663  
  3210.000000   182856363   183107233   183373161   183655498   183945662  
  3205.000000   184237947   184532261   184827676   185121347   185411641  
  3200.000000   185697084   185975875   186250835   186530418   186819894  
  3195.000000   187116528   187416319   187721504   188036779   188362476  
  3190.000000   188696210   189036891   189381867   189722641   190052840  
  3185.000000   190376387   190700137   191024932   191348967   191673728  
  3180.000000   192002237   192336666   192680828   193039996   193413812  
  3175.000000   193793814   194171906   194548134   194925578   195302242  
  3170.000000   195674055   196041594   196407994   196773323   197138160  
  3165.000000   197507477   197884734   198268313   198657211   199053914  
  3160.000000   199458689   199866240   200270040   200665679   201049712  
  3155.000000   201422560   201795370   202187114   202609082   203054635  
  3150.000000   203506567   203951098   204384190   204810110   205237231  
  3145.000000   205670921   206107331   206537107   206957258   207378875  
  3140.000000   207819271   208285754   208770669   209258970   209735041  
  3135.000000   210187416   210615794   211032679   211453487   211888204  
  3130.000000   212343561   212823245   213321106   213822288   214314951  
  3125.000000   214793330   215253223   215694949   216127086   216561155  
  3120.000000   217002034   217446977   217897002   218362321   218851432  
  3115.000000   219362263   219886159   220412473   220929174   221431852  
  3110.000000   221933762   222454882   222998332   223546988   224081666  
  3105.000000   224589922   225065663   225513317   225950061   226398379  
  3100.000000   226873598   227376652   227898168   228428784   228963849  
  3095.000000   229499888   230030469   230548842   231054451   231555049  
  3090.000000   232057955   232559494   233048404   233519364   233978803  
  3085.000000   234436012   234895745   235361393   235839142   236336599  
  3080.000000   236859252   237408940   237982869   238570876   239154379  
  3075.000000   239715479   240246588   240747473   241219195   241664266  
  3070.000000   242090536   242513170   242952316   243425321   243936107  
  3065.000000   244473010   245021120   245572821   246122958   246661646  
  3060.000000   247179352   247676129   248159337   248634424   249099873  
  3055.000000   249549861   249980001   250392012   250799498   251224562  
  3050.000000   251680925   252163180   252655176   253145587   253632621  
  3045.000000   254117974   254602413   255083786   255556718   256013966  
  3040.000000   256447395   256849992   257218186   257557528   257887616  
  3035.000000   258233951   258613156   259027746   259470487   259929160  
  3030.000000   260388447   260832143   261247242   261628585   261979629  
  3025.000000   262305949   262608900   262885709   263134141   263357938  
  3020.000000   263570509   263790509   264029343   264284586   264546567  
  3015.000000   264807593   265063373   265310601   265545010   265757818  
  3010.000000   265933241   266054384   266114448   266120901   266088685  
  3005.000000   266031800   265960799   265882467   265797233   265700810  
  3000.000000   265592546   265475876   265349181   265201695   265019382  
  2995.000000   264792956   264519476   264200149   263839319   263442370  
  2990.000000   263013072   262555567   262077852   261588896   261093246  
  2985.000000   260591863   260086158   259577909   259066186   258546820  
  2980.000000   258014459   257462344   256881440   256265277   255617603  
  2975.000000   254951968   254281861   253613210   252945937   252278724  
  2970.000000   251610755   250941501   250269917   249591681   248897902  
  2965.000000   248178857   247428030   246641544   245815087   244944338  
  2960.000000   244029086   243074982   242090935   241086042   240069703  
  2955.000000   239053369   238049905   237068648   236109982   235166039  
  2950.000000   234227806   233291368   232357843   231430052   230511411  
  2945.000000   229607079   228723888   227868365   227045997   226263101  
  2940.000000   225529328   224858085   224263349   223754637   223334770  
  2935.000000   223002566   222755937   222591525   222504433   222491299  
  2930.000000   222551841   222684451   222881691   223133330   223432914  
  2925.000000   223779130   224171947   224609885   225089627   225605415  
  2920.000000   226149164   226712520   227287921   227866353   228436260  
  2915.000000   228986613   229509707   229999693   230450718   230859265  
  2910.000000   231225401   231552031   231843992   232107130   232348818  
  2905.000000   232576290   232793523   233001771   233200041   233386372  
  2900.000000   233554193   233698597   233820941   233926455   234022040  
  2895.000000   234113268   234205694   234306475   234425693   234576361  
  2890.000000   234772342   235025037   235341771   235726791   236181812  
  2885.000000   236704834   237290405   237932366   238625519   239364351  
  2880.000000   240141972   240951114   241784983   242637516   243505163  
  2875.000000   244388525   245289633   246206510   247131731   248056171  
  2870.000000   248972250   249874041   250756724   251616250   252447709  
  2865.000000   253243983   253997787   254705309   255367413   255988736  
  2860.000000   256576803   257140277   257685937   258218185   258741980  
  2855.000000   259263970   259788891   260316380   260842608   261363143  
  2850.000000   261873079   262366881   262840362   263291799   263720619  
  2845.000000   264127507   264516959   264897273   265276995   265663340  
  2840.000000   266063505   266482750   266919262   267364364   267809435  
  2835.000000   268249324   268678158   269087236   269470527   269828758  
  2830.000000   270165435   270482593   270783594   271076832   271373066  
  2825.000000   271680543   272003951   272344605   272699285   273061356  
  2820.000000   273424868   273785196   274135263   274465602   274770328  
  2815.000000   275049709   275305907   275540911   275760633   275976211  
  2810.000000   276198033   276431573   276680011   276945983   277227770  
  2805.000000   277517636   277806715   278088472   278356365   278603012  
  2800.000000   278824772   279023636   279202770   279364157   279512251  
  2795.000000   279655380   279801194   279954540   280120824   280306089  
  2790.000000   280510762   280727117   280944915   281155861   281352016  
  2785.000000   281525772   281674482   281800921   281907558   281995168  
  2780.000000   282068595   282138352   282213928   282300131   282401204  
  2775.000000   282522229   282663109   282815890   282971079   283122447  
  2770.000000   283263924   283387755   283489359   283570156   283633265  
  2765.000000   283680993   283718746   283756362   283802617   283862256  
  2760.000000   283939623   284039577   284161853   284298938   284442008  
  2755.000000   284584825   284720488   284840533   284940887   285024720  
  2750.000000   285097175   285161470   285221843   285285214   285357505  
  2745.000000   285442329   285544191   285667377   285809699   285962548  
  2740.000000   286118853   286275765   286428347   286567530   286687394  
  2735.000000   286789242   286876598   286952166   287021975   287096062  
  2730.000000   287181881   287282029   287399916   287540580   287702672  
  2725.000000   287876039   288050927   288224161   288393410   288551912  
  2720.000000   288693358   288817324   288926854   289025726   289120891  
  2715.000000   289221974   289334929   289460438   289600277   289759182  
  2710.000000   289937436   290127099   290318344   290504579   290679567  
  2705.000000   290836370   290972773   291092510   291198693   291291786  
  2700.000000   291376378   291463405   291562180   291675210   291802573  
  2695.000000   291944842   292098841   292256730   292412458   292563783  
  2690.000000   292706045   292830813   292933883   293018763   293090234  
  2685.000000   293151136   293208028   293272552   293353111   293450594  
  2680.000000   293564428   293696116   293843618   293998680   294153301  
  2675.000000   294303519   294444764   294570389   294678152   294772472  
  2670.000000   294858038   294937382   295016502   295105484   295210573  
  2665.000000   295331759   295469810   295627880   295803336   295985486  
  2660.000000   296164709   296337081   296497939   296639517   296759333  
  2655.000000   296864107   296961841   297056654   297154058   297263239  
  2650.000000   297389836   297532656   297690367   297864302   298051556  
  2645.000000   298242537   298429024   298608081   298775566   298923847  
  2640.000000   299050065   299159982   299260675   299356449   299454378  
  2635.000000   299565420   299695592   299842422   300002978   300178096  
  2630.000000   300365388   300555378   300738218   300907968   301058218  
  2625.000000   301181814   301278650   301356997   301424573   301485417  
  2620.000000   301547132   301622012   301717147   301830328   301957957  
  2615.000000   302098824   302247443   302392313   302524428   302640353  
  2610.000000   302734934   302800355   302836248   302852793   302860642  
  2605.000000   302865431   302874354   302898579   302944768   303011357  
  2600.000000   303095750   303197135   303309482   303420321   303520064  
  2595.000000   303605259   303671051   303709951   303721720   303716340  
  2590.000000   303704395   303692622   303690546   303711222   303761158  
  2585.000000   303837141   303935199   304053669   304184797   304313298  
  2580.000000   304427635   304524809   304601608   304651032   304671752  
  2575.000000   304672905   304666130   304660681   304668156   304701818  
  2570.000000   304766824   304858497   304972255   305106350   305252718  
  2565.000000   305395335   305521534   305626562   305705211   305750124  
  2560.000000   305762760   305756635   305745789   305738605   305745003  
  2555.000000   305778545   305846248   305944498   306068069   306213938  
  2550.000000   306372971   306527787   306663662   306773964   306853162  
  2545.000000   306895313   306903664   306892426   306875323   306860920  
  2540.000000   306860812   306890794   306958994   307061296   307191064  
  2535.000000   307343394   307506674   307660973   307790235   307888165  
  2530.000000   307950195   307970935   307954026   307914678   307868162  
  2525.000000   307824402   307795729   307798262   307840367   307918036  
  2520.000000   308024325   308153553   308293353   308423579   308528107  
  2515.000000   308599687   308631776   308617491   308561180   308480895  
  2510.000000   308395390   308317356   308260598   308241230   308266437  
  2505.000000   308331066   308428092   308552126   308689608   308817367  
  2500.000000   308916541   308979713   309002364   308979923   308917464  
  2495.000000   308832696   308744219   308665298   308610828   308598011  
  2490.000000   308634848   308716537   308835701   308985662   309150741  
  2485.000000   309305345   309428678   309512385   309552316   309545270  
  2480.000000   309498479   309431110   309361242   309300297   309262323  
  2475.000000   309266342   309323553   309430568   309577886   309754795  
  2470.000000   309942883   310116494   310255932   310353069   310402964  
  2465.000000   310401942   310357739   310290547   310219941   310159843  
  2460.000000   310127171   310141971   310213493   310335244   310496341  
  2455.000000   310686853   310889286   311077540   311230623   311339373  
  2450.000000   311398387   311403826   311363509   311298162   311228140  
  2445.000000   311168143   311135954   311152934   311229989   311361439  
  2440.000000   311534869   311736768   311946716   312138877   312294855  
  2435.000000   312406964   312468255   312472088   312425219   312349952  
  2430.000000   312269655   312201496   312163485   312174641   312243018  
  2425.000000   312362827   312524914   312719116   312924927   313112980  
  2420.000000   313260992   313359608   313402870   313386625   313319588  
  2415.000000   313223975   313121653   313029533   312967908   312958673  
  2410.000000   313010528   313115675   313262275   313438690   313624568  
  2405.000000   313791740   313919081   313997517   314020641   313983800  
  2400.000000   313895417   313777435   313651984   313537298   313455538  
  2395.000000   313429501   313466947   313558224   313690351   313852407  
  2390.000000   314027634   314193085   314330914   314431414   314485155  
  2385.000000   314483604   314429333   314335457   314213987   314074869  
  2380.000000   313937081   313828625   313769744   313766121   313821035  
  2375.000000   313938215   314104437   314284947   314447452   314577643  
  2370.000000   314665171   314697545   314686112   314670949   314667187  
  2365.000000   314640854   314578098   314529154   314529516   314584239  
  2360.000000   314694884   314810873   314881689   314863768   314787592  
  2355.000000   314779179   314829140   314835109   314830114   314956057  
  2350.000000   315119932   315072201   314842237   314727327   314913230  
  2345.000000   315148530   315145532   315013688   314902616   314887777  
  2340.000000   314999159   315194184   315329858   315282621   315093970  
  2335.000000   314927881   314866090   314838934   314787679   314748640  
  2330.000000   314748861   314707709   314650729   314648301   314770377  
  2325.000000   314962840   315168591   315348276   315422786   315339210  
  2320.000000   315127405   314892634   314699184   314542143   314442168  
  2315.000000   314427237   314508049   314613851   314703351   314770975  
  2310.000000   314840703   314887207   314906417   314901988   314882946  
  2305.000000   314824569   314713997   314557594   314372916   314174095  
  2300.000000   314000272   313887784   313852541   313865217   313911645  
  2295.000000   313985189   314083110   314171224   314226985   314243915  
  2290.000000   314219668   314139718   314005351   313846425   313693090  
  2285.000000   313559879   313456602   313400141   313391678   313415780  
  2280.000000   313460106   313529533   313617819   313697169   313741612  
  2275.000000   313746216   313711712   313627052   313492207   313329634  
  2270.000000   313165567   313010806   312875680   312781708   312742252  
  2265.000000   312748422   312789095   312861247   312954222   313038217  
  2260.000000   313087223   313098138   313069934   312994105   312870584  
  2255.000000   312721997   312571708   312428382   312303117   312217985  
  2250.000000   312187301   312201414   312247175   312321133   312413057  
  2245.000000   312494460   312541108   312549101   312518672   312441605  
  2240.000000   312319188   312173696   312027316   311887172   311761910  
  2235.000000   311673311   311635517   311640132   311673720   311732406  
  2230.000000   311806006   311867811   311895682   311887103   311842004  
  2225.000000   311750913   311614713   311456511   311299336   311149142  
  2220.000000   311012520   310910389   310857905   310847016   310862791  
  2215.000000   310899267   310945894   310977886   310976395   310942505  
  2210.000000   310878730   310775620   310631381   310466598   310304559  
  2205.000000   310153569   310021029   309925370   309877730   309867300  
  2200.000000   309878510   309906536   309943099   309965789   309956935  
  2195.000000   309917550   309850130   309746354   309606077   309450153  
  2190.000000   309299897   309160283   309035869   308943764   308894975  
  2185.000000   308879192   308882095   308900680   308927714   308939791  
  2180.000000   308917617   308862826   308781336   308668374   308524927  
  2175.000000   308371114   308227156   308096626   307982240   307899351  
  2170.000000   307857923   307847157   307852407   307871464   307899285  
  2165.000000   307914459   307898602   307854635   307790751   307703062  
  2160.000000   307590787   307472217   307368183   307283348   307218572  
  2155.000000   307185675   307192495   307226991   307272565   307326047  
  2150.000000   307385072   307431753   307447294   307432400   307396023  
  2145.000000   307335844   307249941   307156024   307079281   307029011  
  2140.000000   307000751   306994820   307017719   307068667   307136194  
  2135.000000   307206393   307267110   307307845   307322055   307307871  
  2130.000000   307265861   307200550   307123552   307048635   306984429  
  2125.000000   306937445   306916985   306927348   306960304   307006054  
  2120.000000   307063392   307126163   307172641   307185823   307172362  
  2115.000000   307143139   307090464   307008104   306917278   306844162  
  2110.000000   306786841   306734948   306704921   306718202   306758959  
  2105.000000   306795206   306827295   306872084   306911900   306909124  
  2100.000000   306866641   306816646   306759533   306668799   306554132  
  2095.000000   306464604   306416298   306378022   306341546   306343899  
  2090.000000   306398011   306462046   306505710   306547498   306595696  
  2085.000000   306612310   306571549   306502185   306435405   306357765  
  2080.000000   306257072   306167066   306124246   306116682   306117027  
  2075.000000   306137653   306196606   306271636   306329706   306367753  
  2070.000000   306393314   306386327   306324747   306225416   306125070  
  2065.000000   306037331   305959496   305902879   305881433   305888302  
  2060.000000   305912136   305958677   306031030   306109261   306173742  
  2055.000000   306227811   306271261   306282596   306251627   306197027  
  2050.000000   306137187   306071102   306001792   305952595   305943328  
  2045.000000   305965238   306004722   306073023   306186015   306328510  
  2040.000000   306467234   306586120   306681043   306738740   306749329  
  2035.000000   306727110   306694685   306657033   306617211   306600297  
  2030.000000   306629468   306701070   306797934   306917843   307060656  
  2025.000000   307205223   307330408   307427120   307491301   307506156  
  2020.000000   307461605   307381539   307309850   307268569   307252827  
  2015.000000   307262967   307307797   307383816   307477815   307586227  
  2010.000000   307711239   307840705   307950381   308031392   308084630  
  2005.000000   308097155   308057118   307970727   307867574   307761344  
  2000.000000   307660434   307594142   307574048   307585229   307609158  
  1995.000000   307643944   307694687   307768905   307859156   307934240  
  1990.000000   307963372   307940127   307883397   307811948   307722253  
  1985.000000   307610016   307500883   307429291   307404730   307410962  
  1980.000000   307450198   307536418   307641083   307727413   307793741  
  1975.000000   307850234   307866681   307808376   307689537   307542523  
  1970.000000   307363446   307151233   306965867   306874960   306870458  
  1965.000000   306908708   306981434   307093891   307216277   307309261  
  1960.000000   307380735   307446071   307467265   307399285   307264926  
  1955.000000   307123358   306982714   306828411   306683973   306587892  
  1950.000000   306549829   306536729   306538180   306576041   306638548  
  1945.000000   306682783   306714096   306782769   306865776   306877756  
  1940.000000   306810875   306713362   306603609   306469384   306328793  
  1935.000000   306234668   306204717   306222829   306275451   306372215  
  1930.000000   306521931   306660175   306737722   306755906   306717059  
  1925.000000   306602431   306402898   306200282   306066575   305985061  
  1920.000000   305914302   305884392   305946034   306030212   306070918  
  1915.000000   306132594   306253061   306375012   306415219   306391016  
  1910.000000   306378779   306356097   306272726   306152849   306050354  
  1905.000000   305962335   305832939   305714062   305697591   305752295  
  1900.000000   305801711   305848575   305934138   306041168   306096511  
  1895.000000   306107397   306119312   306093631   305958321   305753616  
  1890.000000   305594100   305475118   305319342   305173784   305124800  
  1885.000000   305164001   305215792   305276928   305398565   305534298  
  1880.000000   305605778   305619223   305615830   305582721   305462439  
  1875.000000   305256926   305038609   304830565   304591152   304338659  
  1870.000000   304195755   304214124   304257880   304305699   304473954  
  1865.000000   304710319   304871893   304927004   304943205   304928501  
  1860.000000   304821368   304640140   304482905   304368226   304237054  
  1855.000000   304103760   304052019   304065016   304072473   304084494  
  1850.000000   304114425   304138788   304127624   304132411   304208707  
  1845.000000   304319164   304308970   304108849   303900014   303753520  
  1840.000000   303608371   303468831   303392657   303387608   303402222  
  1835.000000   303442217   303515202   303567074   303567522   303560638  
  1830.000000   303551898   303452749   303279038   303109871   302957316  
  1825.000000   302839155   302709973   302561893   302466879   302450954  
  1820.000000   302478767   302491762   302522410   302617310   302682697  
  1815.000000   302629456   302481769   302327117   302180171   301970253  
  1810.000000   301752840   301600178   301449494   301264605   301121278  
  1805.000000   301046338   300946532   300811834   300766226   300878924  
  1800.000000   301002941   300967491   300842118   300704579   300534012  
  1795.000000   300331288   300152253   300045443   299917125   299660190  
  1790.000000   299477120   299464896   299488434   299479190   299511455  
  1785.000000   299585733   299568735   299454541   299308377   299168786  
  1780.000000   299043538   298880876   298689784   298445316   298194357  
  1775.000000   298017546   297899647   297818216   297753948   297625620  
  1770.000000   297544591   297594071   297713784   297787661   297747732  
  1765.000000   297631095   297473684   297291746   297041069   296689107  
  1760.000000   296354010   296113675   295951186   295820282   295737690  
  1755.000000   295687965   295601571   295438635   295317825   295271610  
  1750.000000   295092211   294729727   294388806   294193713   293984716  
  1745.000000   293675130   293400808   293257719   293187332   293096408  
  1740.000000   292951991   292760188   292601573   292521411   292424249  
  1735.000000   292404908   292411047   291911541   291276462   290921330  
  1730.000000   290742585   290565367   290336924   290098885   289822624  
  1725.000000   289503891   289180730   288886682   288688435   288551828  
  1720.000000   288344241   288009076   287685669   287309084   286666649  
  1715.000000   286052888   285719944   285532840   285232525   284802937  
  1710.000000   284391201   284049366   283686693   283231472   282762161  
  1705.000000   282345537   282006253   281823760   281728933   281608904  
  1700.000000   281061836   279955587   279211884   278835408   278283901  
  1695.000000   277392197   276625631   276205360   275787621   275215888  
  1690.000000   274573075   273961395   273511478   273228702   272898475  
  1685.000000   272320829   271227746   269761547   268838893   268240086  
  1680.000000   267690120   267279366   266992143   266592799   265937898  
  1675.000000   265128863   264315420   263661928   263106850   262540299  
  1670.000000   261918869   261085882   260241541   259730895   259441196  
  1665.000000   259074929   258471566   257726808   257008303   256374423  
  1660.000000   255898179   255577551   255343497   255123927   254950398  
  1655.000000   254783559   254722884   254324058   253008473   252467490  
  1650.000000   252518490   252455532   252223398   252054800   251944717  
  1645.000000   251883854   251954984   252125553   252375073   252642148  
  1640.000000   252892867   253159842   253491146   253957601   254587970  
  1635.000000   255070215   255329861   255685581   256121009   256618056  
  1630.000000   257205444   257837466   258464922   259119545   259823338  
  1625.000000   260530062   261291182   262183687   263070548   263826975  
  1620.000000   264525377   265261633   266156996   267157727   267936189  
  1615.000000   268504288   269104688   269710695   270308731   271001614  
  1610.000000   271772476   272486869   273151577   273882291   274619137  
  1605.000000   275212445   275712969   276229804   276726616   277112338  
  1600.000000   277427895   277754454   278048459   278250341   278424244  
  1595.000000   278683443   279012244   279303710   279557128   279851029  
  1590.000000   280164074   280393214   280539179   280684532   280818863  
  1585.000000   280834197   280768750   280762421   280769137   280670384  
  1580.000000   280542948   280537987   280620470   280708939   280720350  
  1575.000000   280628310   280586140   280586128   280554986   280520932  
  1570.000000   280474408   280215243   279893273   279760204   279655661  
  1565.000000   279422111   279225313   279214334   279313418   279074446  
  1560.000000   278770249   279028476   278680387   278054149   277816621  
  1555.000000   277803217   277727034   277534691   277250638   276948293  
  1550.000000   276663714   276430384   276252003   276089703   275812909  
  1545.000000   275426943   275074171   274863399   274736352   274617456  
  1540.000000   274347251   273838782   273534500   273474894   273363050  
  1535.000000   273091820   272720776   272269356   271836277   271575103  
  1530.000000   271424700   271226553   270922523   270570319   270242210  
  1525.000000   269965803   269708629   269372321   268920769   268341531  
  1520.000000   267753691   267316887   266836650   266265470   265797883  
  1515.000000   265560810   265424458   265183415   264797569   264296383  
  1510.000000   263760949   263148732   262544654   262018394   261278836  
  1505.000000   260587512   260196305   259896643   259472209   258935708  
  1500.000000   258334258   257710484   256999994   256236599   255501086  
  1495.000000   254913188   254496599   254067703   253402677   252392175  
  1490.000000   251103952   249779785   248628949   247670888   246849270  
  1485.000000   246030352   245152955   244182326   243064952   241881456  
  1480.000000   240782168   239793732   238735898   237483339   236110366  
  1475.000000   234754337   233289804   231494043   229640244   228255784  
  1470.000000   227418714   226836895   226308443   225746902   225097690  
  1465.000000   224385780   223825544   223558378   223496607   223486738  
  1460.000000   223469907   223405629   223247892   223058850   223014023  
  1455.000000   223284117   223661809   224005968   224362365   224727167  
  1450.000000   224996284   225129378   225168815   225166391   225114725  
  1445.000000   225013872   224904380   224742999   224480769   224186588  
  1440.000000   223994807   223847590   223523081   222940476   222319124  
  1435.000000   221930379   221772090   221682449   221585183   221451629  
  1430.000000   221228562   220984338   220842520   220795715   220660115  
  1425.000000   220352544   220099507   220083636   220198272   220217724  
  1420.000000   220095727   219914819   219764799   219838380   220185836  
  1415.000000   220628510   220972821   221192431   221410118   221677540  
  1410.000000   221926677   222151705   222390511   222629829   222809674  
  1405.000000   222958397   223222117   223601422   223940478   224134013  
  1400.000000   224233565   224321809   224378912   224370920   224294138  
  1395.000000   224146565   223892205   223583842   223321359   223058563  
  1390.000000   222667377   222065603   221299518   220540702   219957082  
  1385.000000   219585699   219356504   219170907   218958798   218694795  
  1380.000000   218397220   218111962   217844329   217548745   217184799  
  1375.000000   216780003   216416820   216190056   216137282   216200526  
  1370.000000   216273337   216310605   216393567   216577895   216787272  
  1365.000000   216898952   216895401   216889035   216985411   217186280  
  1360.000000   217449759   217737351   218002315   218216310   218409828  
  1355.000000   218629790   218877542   219126152   219352257   219558598  
  1350.000000   219729887   219836318   219901755   219949795   219963412  
  1345.000000   219926172   219871931   219821648   219736140   219601325  
  1340.000000   219538030   219706293   220116190   220665802   221294561  
  1335.000000   221986200   222704423   223412376   224120308   224852686  
  1330.000000   225591543   226310400   227022144   227742058   228433703  
  1325.000000   229062311   229656440   230235474   230760525   231202595  
  1320.000000   231603278   232006230   232388726   232712406   232979894  
  1315.000000   233196303   233344180   233437578   233534450   233660031  
  1310.000000   233778706   233877088   234001254   234187432   234406516  
  1305.000000   234625407   234864214   235134920   235403667   235646328  
  1300.000000   235886457   236134536   236358648   236546887   236740191  
  1295.000000   236964728   237191016   237400419   237623008   237876296  
  1290.000000   238130429   238369497   238623468   238899693   239145844  
  1285.000000   239321890   239445503   239534521   239570467   239548312  
  1280.000000   239507655   239475663   239432092   239364169   239296324  
  1275.000000   239234459   239135350   238972008   238772420   238557824  
  1270.000000   238298403   237971422   237608171   237239587   236853525  
  1265.000000   236445723   236052662   235696911   235355027   235016216  
  1260.000000   234721004   234492721   234285860   234052991   233801760  
  1255.000000   233544648   233249844   232891631   232498159   232101894  
  1250.000000   231691001   231258516   230849485   230506347   230218766  
  1245.000000   229978814   229828458   229799028   229854077   229946985  
  1240.000000   230082261   230267243   230459654   230620059   230765235  
  1235.000000   230917691   231055341   231162440   231276054   231428602  
  1230.000000   231595751   231748903   231904631   232074860   232220574  
  1225.000000   232301422   232319261   232268349   232098369   231773420  
  1220.000000   231317560   230758989   230081258   229275951   228393847  
  1215.000000   227496556   226601025   225718692   224901266   224191642  
  1210.000000   223569148   222996588   222481556   222036653   221624468  
  1205.000000   221203342   220789848   220416196   220063203   219695873  
  1200.000000   219327452   218984175   218641916   218259693   217837397  
  1195.000000   217379303   216835519   216142067   215287515   214280506  
  1190.000000   213087816   211669557   210048633   208282097   206385964  
  1185.000000   204350778   202210540   200026476   197813029   195549246  
  1180.000000   193255587   190982087   188723836   186432594   184113471  
  1175.000000   181826684   179592022   177383833   175225468   173187293  
  1170.000000   171283881   169477810   167793519   166315020   165059218  
  1165.000000   163968212   163036155   162317720   161800559   161401668  
  1160.000000   161104186   160966102   160984291   161086985   161269994  
  1155.000000   161602512   162089675   162667129   163337387   164172527  
  1150.000000   165175914   166276936   167464055   168786933   170226917  
  1145.000000   171697234   173167383   174657764   176118414   177440505  
  1140.000000   178579979   179551736   180317910   180802216   181005118  
  1135.000000   180994344   180792370   180382099   179813797   179194242  
  1130.000000   178569967   177925156   177288930   176731139   176251798  
  1125.000000   175788005   175331443   174926668   174556787   174149758  
  1120.000000   173697781   173252896   172806137   172292131   171714164  
  1115.000000   171142750   170587211   169991196   169359897   168767726  
  1110.000000   168231203   167702871   167194725   166779154   166461300  
  1105.000000   166173957   165905133   165699053   165524758   165281338  
  1100.000000   164935665   164530948   164054910   163431459   162658906  
  1095.000000   161818159   160935069   159966385   158934889   157939229  
  1090.000000   157011291   156102168   155227103   154480231   153884943  
  1085.000000   153376420   152954902   152708937   152666971   152777646  
  1080.000000   153058046   153608813   154462551   155567955   156932678  
  1075.000000   158614996   160550011   162529894   164358804   165887423  
  1070.000000   166922154   167274703   166924074   166012780   164683335  
  1065.000000   163030664   161201196   159385400   157673755   156040331  
  1060.000000   154490128   153092416   151851371   150690159   149594290  
  1055.000000   148633183   147813766   147055825   146344431   145755058  
  1050.000000   145289529   144851342   144415947   144051829   143755409  
  1045.000000   143439500   143096955   142812055   142596435   142368528  
  1040.000000   142110487   141888657   141698872   141448693   141116600  
  1035.000000   140775281   140434820   140017225   139511841   139003020  
  1030.000000   138516312   137987817   137412663   136872678   136388610  
  1025.000000   135895989   135395807   134976700   134658228   134364087  
  1020.000000   134079805   133884223   133795353   133737786   133692326  
  1015.000000   133726741   133849756   133984582   134113753   134299750  
  1010.000000   134535444   134723997   134834824   134933521   135032090  
  1005.000000   135056226   134988810   134901871   134818039   134681714  
  1000.000000   134495002   134340385   134239244   134128152   134004159  
   995.000000   133953320   134006580   134107735   134252921   134521457  
   990.000000   134940031   135456091   136073447   136875537   137888882  
   985.000000   139061840   140400772   141987108   143837223   145882332  
   980.000000   148104770   150557605   153233690   156047959   158962513  
   975.000000   162004542   165155519   168344482   171553018   174812179  
   970.000000   178098517   181341966   184529203   187697204   190837070  
   965.000000   193900951   196888341   199833935   202727899   205532655  
   960.000000   208257049   210934914   213554742   216084013   218534058  
   955.000000   220928914   223237878   225403352   227403050   229223516  
   950.000000   230806678   232082101   233022065   233617204   233836452  
   945.000000   233665302   233158494   232412282   231506579   230507545  
   940.000000   229495178   228537154   227648009   226814877   226047159  
   935.000000   225361662   224744314   224177345   223685560   223307048  
   930.000000   223038275   222857378   222777957   222826161   222989672  
   925.000000   223247595   223628122   224178671   224901450   225773495  
   920.000000   226800782   227991488   229304562   230685624   232125000  
   915.000000   233624628   235143286   236633149   238096208   239549290  
   910.000000   240968173   242317293   243597384   244815388   245946311  
   905.000000   246970419   247909097   248783508   249579084   250290061  
   900.000000   250957499   251626624   252305546   252998800   253738608  
   895.000000   254547965   255414673   256332810   257326057   258399845  
   890.000000   259515390   260637377   261758571   262854692   263871128  
   885.000000   264780022   265595975   266313846   266887790   267290478  
   880.000000   267532925   267607144   267470541   267106272   266539137  
   875.000000   265774192   264778629   263544084   262116444   260550162  
   870.000000   258882356   257166047   255480077   253882276   252390228  
   865.000000   251031857   249878616   248998769   248407993   248093178  
   860.000000   248044382   248222013   248530824   248875844   249218986  
   855.000000   249550407   249847559   250102459   250349508   250624702  
   850.000000   250929530   251266481   251669230   252160740   252720647  
   845.000000   253330110   254007887   254766140   255572964   256395253  
   840.000000   257237005   258102449   258967974   259824921   260704152  
   835.000000   261624015   262557053   263478087   264398389   265321221  
   830.000000   266211024   267038049   267805733   268504141   269088954  
   825.000000   269537402   269871085   270099231   270200591   270182229  
   820.000000   270094429   269971208   269812194   269633003   269476116  
   815.000000   269354467   269234122   269088921   268922107   268719391  
   810.000000   268436486   268056403   267608960   267112694   266546620  
   805.000000   265901938   265215430   264523312   263823291   263108312  
   800.000000   262397662   261707340   261026522   260350573   259700111  
   795.000000   259079122   258451370   257788392   257105126   256419405  
   790.000000   255714489   254974565   254220118   253472372   252714957  
   785.000000   251925499   251112595   250282053   249398566   248422504  
   780.000000   247356369   246216002   244985885   243647495   242228313  
   775.000000   240780484   239333709   237912360   236574375   235381028  
   770.000000   234344826   233456499   232743372   232246226   231957032  
   765.000000   231838137   231884447   232106003   232468531   232915435  
   760.000000   233433206   234034335   234695691   235377225   236082819  
   755.000000   236841119   237645049   238469990   239325905   240226552  
   750.000000   241130409   241973876   242739868   243434596   244023570  
   745.000000   244456533   244736495   244901622   244959469   244902284  
   740.000000   244763340   244588122   244366278   244059925   243684468  
   735.000000   243291150   242879299   242399518   241837353   241221402  
   730.000000   240549963   239790460   238943729   238033735   237061806  
   725.000000   236029932   234984500   233973176   232975490   231947432  
   720.000000   230926326   230007983   229220312   228511443   227850362  
   715.000000   227251164   226711108   226210327   225769673   225439378  
   710.000000   225229960   225118818   225120532   225267023   225543831  
   705.000000   225912591   226368091   226924990   227555298   228190206  
   700.000000   228795689   229373026   229898984   230334668   230670322  
   695.000000   230928386   231110947   231193751   231193623   231158862  
   690.000000   231107369   231033840   230958160   230919036   230905038  
   685.000000   230861737   230782403   230702307   230611340   230457108  
   680.000000   230234436   229992173   229745653   229482842   229210093  
   675.000000   228942465   228680126   228385735   228050347   227589728  
   670.000000   226900434   225800844   224740059   224921915   225866753  
   665.000000   226512919   226778012   226796688   226671435   226430168  
   660.000000   226136436   225882157   225672150   225472596   225287255  
   655.000000   225148688   225050990   224958664   224872121   224809533  
   650.000000   224736571   224602768   224418646   224212474   223972970  
   645.000000   223681778   223377025   223125018   222916700   222693207  
   640.000000   222464654   222290341   222163843   222020670   221839210  
   635.000000   221649664   221441426   221152324   220763529   220311895  
   630.000000   219804683   219211989   218548013   217865749   217183394  
   625.000000   216475565   215756636   215089997   214481458   213872088  
   620.000000   213250081   212665261   212121222   211568725   211021267  
   615.000000   210555754   210174867   209797163   209410647   209103925  
   610.000000   208911631   208764048   208637922   208603680   208689044  
   605.000000   208815086   208918704   209014503   209093114   209102493  
   600.000000   209072486   209097548   209161379   209142137   209008007  
   595.000000   208850060   208699783   208477869   208158937   207815782  
   590.000000   207442518   206913630   206170786   205282362   204294985  
   585.000000   203179403   201980140   200840730   199812902   198819107  
   580.000000   197875478   197139000   196666116   196357348   196186260  
   575.000000   196260713   196593722   197065664   197654919   198458666  
   570.000000   199453614   200469663   201439385   202439351   203470865  
   565.000000   204425603   205285052   206134337   206975599   207723631  
   560.000000   208389165   209076195   209784402   210392620   210854940  
   555.000000   211246346   211595546   211841437   211976908   212076224  
   550.000000   212153364   212143449   212049834   211957100   211869162  
   545.000000   211686265   211372523   210989261   210541561   209946454  
   540.000000   209191335   208377013   207570870   206752813   205956223  
   535.000000   205285603   204755601   204272289   203829572   203547229  
   530.000000   203446387   203395674   203353872   203447837   203719134  
   525.000000   204023084   204288780   204615438   205041584   205474002  
   520.000000   205893219   206417886   207077716   207742978   208370952  
   515.000000   209056539   209789571   210422270   210919799   211417549  
   510.000000   211988025   212543370   213039280   213547354   214044533  
   505.000000   214394506   214592263   214808865   215130935   215434551  
   500.000000   215647181   215865002   216134250   216371318   216535955  
   495.000000   216695347   216856385   216931624   216954293   217061891  
   490.000000   217223723   217245340   217081949   216903636   216809950  
   485.000000   216730151   216680597   216827359   217166603   217470668  
   480.000000   217643459   217818815   218078990   218326346   218520256  
   475.000000   218780190   219172059   219600444   220021090   220485666  
   470.000000   220941252   221278444   221554059   221935801   222427911  
   465.000000   222883695   223283807   223757229   224292396   224708824  
   460.000000   224938455   225077440   225164187   225120960   224966874  
   455.000000   224822905   224679830   224426182   224121434   223958832  
   450.000000   223927687   223802638   223491983   223129230   222771994  
   445.000000   222269976   221547938   220800205   220231266   219821148  
   440.000000   219507964   219327746   219254333   219207631   219303534  
   435.000000   219739317   220364180   220829927   221121707   221521411  
   430.000000   222065267   222456989   222604722   222749817   223000365  
   425.000000   223170088   223259245   223583791   224216473   224840785  
   420.000000   225376398   226205917   227114590   227357469   227111823  
   415.000000   226856739   226603373   226079550   225352547   224955504  
   410.000000   225125152   225462937   225650775   225812412   225976221  
   405.000000   225896034   225695147   225772882   226193622   226234742  
   400.000000   226736576  
##END= 
