##TITLE= Amostra 011 por Administrator data segunda-feira, julho 16 2012
##JCAMP-DX= 4.24
##DATA TYPE= INFRARED SPECTRUM
##ORIGIN= Exported PE Spectrum Data File
##OWNER= Administrator
##DATE= 12/07/16
##TIME= 09:16:35.00
##SPECTROMETER/DATA SYSTEM= PERKIN-ELMER Spectrum 100 IR
##INSTRUMENT PARAMETERS=
  APODIZATION=Forte
  DETECTOR=MIR TGS
##RESOLUTION= 4.000000
##DELTAX= -1.00
##XUNITS= 1/CM
##YUNITS= %T
##XFACTOR= 1.00
##YFACTOR= 0.00000023841857910156
##FIRSTX= 4000.00
##LASTX= 400.00
##NPOINTS= 3601
##FIRSTY= 65.172102
##MAXY= 75.090767
##MINY= 31.873251
##XYDATA= (X++(Y..Y))
  4000.000000   273351607   273288679   273219561   273164572   273113794  
  3995.000000   273044351   272962996   272904669   272883724   272874002  
  3990.000000   272850325   272820499   272795644   272758165   272691047  
  3985.000000   272617992   272578635   272573802   272563120   272513515  
  3980.000000   272429033   272331613   272236699   272161038   272126762  
  3975.000000   272132366   272141992   272125199   272095129   272077746  
  3970.000000   272075792   272073536   272051159   271991840   271891078  
  3965.000000   271775614   271687224   271642409   271617261   271588712  
  3960.000000   271568140   271552910   271513328   271445406   271378125  
  3955.000000   271321048   271235226   271099409   270946966   270842166  
  3950.000000   270826332   270863458   270860554   270782454   270704042  
  3945.000000   270691330   270716269   270705904   270643712   270615227  
  3940.000000   270681785   270713202   270550225   270243157   269980438  
  3935.000000   269865611   269846302   269889677   270022825   270186349  
  3930.000000   270224604   270058109   269813220   269676858   269653740  
  3925.000000   269592619   269453132   269395091   269459181   269437784  
  3920.000000   269268445   269203479   269400614   269639873   269663069  
  3915.000000   269551286   269496036   269451991   269299520   269044887  
  3910.000000   268762968   268478975   268158315   267841764   267641063  
  3905.000000   267633082   267739836   267899090   268226540   268706032  
  3900.000000   268974126   268776135   268347329   268056286   267910039  
  3895.000000   267688338   267456038   267513096   267802156   267739391  
  3890.000000   267216950   266944861   267125807   267288426   267102950  
  3885.000000   266638490   266391386   266725754   267211494   267345371  
  3880.000000   267031872   266522187   266336556   266495494   266496539  
  3875.000000   266098502   265487470   265189771   265600971   266292621  
  3870.000000   266355901   265625479   265173132   265565812   265878924  
  3865.000000   265571087   265217811   265261957   265422123   265285905  
  3860.000000   264891441   264482496   264028731   263425968   262893117  
  3855.000000   263089295   264262762   264773508   263691263   263153217  
  3850.000000   263727733   264060826   263833480   263479551   263243830  
  3845.000000   263047837   262794188   262502370   262338784   262399500  
  3840.000000   262574227   262742937   262797228   262638494   262364019  
  3835.000000   262232923   262327775   262460739   262361996   262023014  
  3830.000000   261750193   261753096   261846801   261659507   261092863  
  3825.000000   260532313   260363069   260496414   260691507   260549678  
  3820.000000   259933254   259858557   260593622   261081885   260768221  
  3815.000000   260003885   259680171   259958122   259995013   259471137  
  3810.000000   258940701   258887051   259132255   259026303   258394897  
  3805.000000   258013892   258285126   258646175   258664948   258156700  
  3800.000000   257536889   257655063   258112177   258102854   257688962  
  3795.000000   257351470   257327286   257358215   257160708   256824308  
  3790.000000   256556181   256358450   256157841   255991152   255903757  
  3785.000000   255771178   255485369   255195495   255080015   255060453  
  3780.000000   254984875   254796993   254609174   254599275   254618920  
  3775.000000   254353217   253842670   253451402   253356856   253355646  
  3770.000000   253172999   252866456   252782338   252955337   252955539  
  3765.000000   252550714   252055487   251872142   251854133   251603723  
  3760.000000   251216817   251024862   250955246   250727755   250320736  
  3755.000000   249884800   249423947   248982180   248940537   249427686  
  3750.000000   249628585   249089861   248616919   248758271   249158557  
  3745.000000   249288252   248512984   247285216   247081753   247433642  
  3740.000000   247083361   246215377   245575477   245449551   245601506  
  3735.000000   245803296   246032191   246151361   245844916   245243920  
  3730.000000   244886075   244874731   244795274   244405491   243934190  
  3725.000000   243711804   243692645   243535916   243152263   242745674  
  3720.000000   242478660   242272717   241947818   241509394   241125326  
  3715.000000   240840810   240535529   240265868   240245506   240300061  
  3710.000000   240073481   239674589   239325666   239002053   238648210  
  3705.000000   238290190   237950437   237620019   237254588   236796096  
  3700.000000   236363073   236136072   235961051   235563061   234990116  
  3695.000000   234496370   234117542   233622710   232943521   232346269  
  3690.000000   232034910   231708241   231049212   230483363   230445428  
  3685.000000   230573983   230373942   229877485   229376657   228929701  
  3680.000000   228322724   227572073   226995764   226707856   226393913  
  3675.000000   225481983   224478918   224514356   224885478   224456413  
  3670.000000   223423824   222364189   221755310   221657723   221549163  
  3665.000000   221126743   220521332   219901243   219272360   218605466  
  3660.000000   217960819   217433379   216986277   216453646   215705484  
  3655.000000   214967296   214622475   214382291   213601773   212375446  
  3650.000000   211507440   211161809   210653392   209867981   209339437  
  3645.000000   209233474   209196250   208873911   208273215   207653911  
  3640.000000   207154489   206673716   206092983   205503408   205014210  
  3635.000000   204524876   203918190   203325014   202921639   202497078  
  3630.000000   201732759   200609090   199329437   198569829   198620631  
  3625.000000   198721272   198397317   197835206   197245596   196588021  
  3620.000000   195794577   194951629   194243851   193867202   193735366  
  3615.000000   193483037   192939937   192285086   191783318   191476229  
  3610.000000   191112149   190471848   189669222   188991941   188597547  
  3605.000000   188374099   188078624   187602136   187000493   186365835  
  3600.000000   185785985   185334007   184967492   184555939   184028633  
  3595.000000   183425954   182865190   182470078   182276857   182132884  
  3590.000000   181774055   181051016   180105622   179227477   178672414  
  3585.000000   178525911   178559823   178479818   178223489   177887558  
  3580.000000   177548215   177217739   176883907   176537585   176187160  
  3575.000000   175843699   175529655   175271467   175071674   174878578  
  3570.000000   174582200   174070541   173367926   172661356   172145998  
  3565.000000   171934443   171936311   171900536   171705671   171432685  
  3560.000000   171197498   171035751   170920619   170810569   170668541  
  3555.000000   170458551   170152481   169776547   169430432   169223951  
  3550.000000   169148072   169030703   168702757   168200773   167721577  
  3545.000000   167415406   167296806   167302102   167353648   167380244  
  3540.000000   167331305   167186958   166955955   166688284   166465800  
  3535.000000   166355559   166342576   166331799   166235894   166047578  
  3530.000000   165811327   165551875   165278057   165021222   164814170  
  3525.000000   164637247   164461230   164317716   164264218   164287725  
  3520.000000   164294333   164207214   164041174   163866175   163720496  
  3515.000000   163591737   163469156   163364140   163266854   163135139  
  3510.000000   162959492   162798846   162721197   162708190   162641208  
  3505.000000   162413931   162060098   161733530   161562298   161543910  
  3500.000000   161576616   161557756   161452973   161297553   161155523  
  3495.000000   161070431   161039943   161030958   161008027   160947652  
  3490.000000   160838907   160687165   160527374   160416316   160382784  
  3485.000000   160382127   160320373   160141599   159888328   159669747  
  3480.000000   159569992   159584154   159636919   159651213   159602723  
  3475.000000   159515865   159419557   159317109   159194492   159045788  
  3470.000000   158886888   158745918   158644878   158593398   158588219  
  3465.000000   158604001   158592391   158517626   158398586   158298884  
  3460.000000   158266266   158289705   158321727   158328843   158306795  
  3455.000000   158267747   158224724   158184720   158151484   158122965  
  3450.000000   158077027   157971804   157797621   157621613   157541722  
  3445.000000   157579421   157648567   157654999   157594960   157523000  
  3440.000000   157459915   157379388   157273399   157180741   157137558  
  3435.000000   157139570   157157758   157166519   157156901   157139966  
  3430.000000   157140667   157175073   157238257   157315022   157394394  
  3425.000000   157464896   157505449   157495970   157440852   157377288  
  3420.000000   157351214   157381220   157442630   157487035   157484694  
  3415.000000   157449818   157421960   157426011   157457587   157502112  
  3410.000000   157554355   157615885   157684512   157749569   157792657  
  3405.000000   157796726   157760359   157706343   157672137   157687456  
  3400.000000   157754440   157847380   157936931   158013130   158078788  
  3395.000000   158125962   158140680   158137331   158167104   158272408  
  3390.000000   158440454   158615325   158751271   158841464   158901260  
  3385.000000   158946397   158989725   159042033   159105731   159175393  
  3380.000000   159248574   159329203   159420928   159522164   159627353  
  3375.000000   159726690   159807255   159860674   159891738   159916896  
  3370.000000   159955262   160021187   160120829   160252560   160408132  
  3365.000000   160573097   160729038   160862373   160975957   161089976  
  3360.000000   161224313   161377893   161528835   161655802   161755274  
  3355.000000   161836332   161906259   161969516   162038158   162132174  
  3350.000000   162264439   162426667   162592458   162736619   162850857  
  3345.000000   162944794   163034502   163128796   163225281   163318104  
  3340.000000   163407471   163501167   163609501   163738923   163888368  
  3335.000000   164049732   164211748   164364531   164502962   164626284  
  3330.000000   164733797   164822838   164895117   164964818   165053157  
  3325.000000   165172224   165315750   165466212   165609831   165743093  
  3320.000000   165867554   165985161   166099582   166215328   166331869  
  3315.000000   166441774   166538504   166622534   166696443   166758765  
  3310.000000   166809492   166859343   166926926   167024591   167150740  
  3305.000000   167296451   167454302   167618418   167779839   167926432  
  3300.000000   168047514   168140463   168214648   168287744   168373961  
  3295.000000   168473235   168576557   168682824   168803449   168947104  
  3290.000000   169105741   169260238   169398570   169523977   169645194  
  3285.000000   169765754   169885928   170006768   170128889   170250495  
  3280.000000   170366556   170470598   170559341   170636459   170710678  
  3275.000000   170789132   170874079   170968176   171079843   171219434  
  3270.000000   171389127   171577741   171767143   171943409   172101925  
  3265.000000   172246371   172384933   172521920   172655371   172783209  
  3260.000000   172905301   173021757   173136008   173257722   173397615  
  3255.000000   173560237   173740791   173928656   174110809   174273825  
  3250.000000   174412439   174537584   174669459   174820616   174990162  
  3245.000000   175174036   175371651   175577956   175780530   175971871  
  3240.000000   176156383   176339110   176515475   176678203   176830548  
  3235.000000   176988800   177170422   177382888   177620956   177869021  
  3230.000000   178110020   178336563   178553569   178770964   178994348  
  3225.000000   179222908   179453666   179682363   179904212   180120258  
  3220.000000   180340744   180576315   180826958   181080671   181323025  
  3215.000000   181552573   181784845   182035292   182300197   182561678  
  3210.000000   182811277   183060023   183323144   183602902   183890769  
  3205.000000   184180191   184470976   184763570   185056483   185347822  
  3200.000000   185634549   185913571   186187672   186466186   186755141  
  3195.000000   187051668   187350778   187653694   187965175   188287053  
  3190.000000   188619105   188961546   189310999   189656264   189987934  
  3185.000000   190309029   190628258   190948963   191270217   191592770  
  3180.000000   191919076   192251924   192595918   192955908   193330172  
  3175.000000   193709583   194086975   194463901   194843735   195222863  
  3170.000000   195595006   195959924   196321826   196682411   197043045  
  3165.000000   197408670   197782445   198162382   198547293   198940012  
  3160.000000   199341521   199746946   200149626   200544939   200929352  
  3155.000000   201302735   201675030   202064474   202483220   202926481  
  3150.000000   203378200   203824400   204260147   204688648   205117007  
  3145.000000   205549601   205982905   206409274   206827278   207248020  
  3140.000000   207687727   208152812   208635480   209121296   209595741  
  3135.000000   210048231   210478333   210897413   211319635   211754353  
  3130.000000   212208382   212686057   213182220   213682814   214176096  
  3125.000000   214655659   215116317   215557665   215988017   216419040  
  3120.000000   216856469   217298859   217747792   218212815   218701388  
  3115.000000   219211064   219733380   220257679   220771743   221271410  
  3110.000000   221770497   222288733   222827990   223370494   223898520  
  3105.000000   224402214   224876801   225326200   225766263   226218124  
  3100.000000   226696197   227201286   227724372   228256079   228791046  
  3095.000000   229325229   229852606   230367342   230869285   231366008  
  3090.000000   231864849   232362563   232848325   233317125   233775650  
  3085.000000   234233143   234693669   235159845   235637613   236134569  
  3080.000000   236655918   237203431   237775304   238362902   238947893  
  3075.000000   239510607   240041366   240539280   241006179   241446011  
  3070.000000   241868342   242289923   242731260   243208141   243722192  
  3065.000000   244260646   244808970   245359915   245907610   246441492  
  3060.000000   246953075   247444913   247926166   248401839   248868475  
  3055.000000   249318475   249746891   250156088   250561079   250985566  
  3050.000000   251443931   251929785   252425151   252917448   253404649  
  3045.000000   253888491   254369502   254845387   255311258   255761233  
  3040.000000   256189009   256588970   256957650   257299194   257631549  
  3035.000000   257979913   258361918   258780820   259228517   259690636  
  3030.000000   260149963   260589752   260997810   261370800   261714703  
  3025.000000   262037206   262339842   262618068   262867853   263092717  
  3020.000000   263306845   263529082   263769905   264025851   264287284  
  3015.000000   264547787   264804771   265055882   265296093   265514071  
  3010.000000   265691144   265809318   265863267   265863190   265826194  
  3005.000000   265767294   265697278   265622398   265541460   265447874  
  3000.000000   265339578   265220667   265091440   264942633   264760538  
  2995.000000   264535597   264264789   263949205   263592305   263197910  
  2990.000000   262768790   262309826   261831072   261343058   260850259  
  2985.000000   260352836   259852119   259350303   258846016   258333407  
  2980.000000   257805358   257254394   256671810   256052101   255400546  
  2975.000000   254732488   254062578   253396651   252733647   252071133  
  2970.000000   251407472   250741944   250074154   249400568   248711870  
  2965.000000   247996709   247247477   246460914   245633947   244762513  
  2960.000000   243846142   242891262   241908326   240906678   239893895  
  2955.000000   238879483   237876380   236895658   235939011   234998328  
  2950.000000   234063570   233130199   232199346   231273914   230357027  
  2945.000000   229453337   228569431   227712151   226887714   226103270  
  2940.000000   225369116   224698835   224105972   223599275   223181031  
  2935.000000   222849988   222604189   222440453   222354264   222342455  
  2930.000000   222403760   222534548   222726585   222972043   223268531  
  2925.000000   223616503   224013771   224455397   224936643   225452535  
  2920.000000   225996036   226559386   227135837   227717222   228291465  
  2915.000000   228845454   229369701   229858607   230308010   230715580  
  2910.000000   231081085   231406275   231695565   231956000   232197213  
  2905.000000   232427836   232650524   232862900   233061043   233243127  
  2900.000000   233405611   233546276   233666952   233772126   233867994  
  2895.000000   233959653   234051725   234150399   234265984   234413191  
  2890.000000   234607606   234860735   235178377   235563113   236016185  
  2885.000000   236536328   237119088   237758824   238450423   239188461  
  2880.000000   239966272   240776581   241611962   242465176   243331548  
  2875.000000   244211378   245107643   246020197   246943271   247868187  
  2870.000000   248786452   249690629   250574581   251433412   252261906  
  2865.000000   253053457   253802158   254505652   255165231   255784654  
  2860.000000   256370131   256929636   257470293   257997620   258517883  
  2855.000000   259038585   259564349   260093685   260621164   261141106  
  2850.000000   261648449   262138697   262609039   263058139   263484518  
  2845.000000   263887999   264273646   264651258   265029951   265416002  
  2840.000000   265815673   266234552   266671445   267116843   267560235  
  2835.000000   267995878   268419806   268825982   269209062   269567987  
  2830.000000   269904251   270219942   270520186   270814359   271111933  
  2825.000000   271419143   271740593   272079708   272434991   272799103  
  2820.000000   273163985   273523858   273871989   274199486   274500589  
  2815.000000   274775925   275028613   275261457   275480466   275696581  
  2810.000000   275920121   276156175   276406850   276673624   276954513  
  2805.000000   277242626   277530506   277812796   278083069   278332643  
  2800.000000   278556034   278754469   278931960   279091708   279238472  
  2795.000000   279380255   279524706   279676989   279842529   280027194  
  2790.000000   280231615   280448382   280666806   280877447   281071661  
  2785.000000   281242295   281387852   281512217   281618515   281707330  
  2780.000000   281782305   281852610   281927642   282013484   282115595  
  2775.000000   282239124   282383354   282539758   282698112   282851081  
  2770.000000   282991986   283113717   283212756   283290632   283349897  
  2765.000000   283393060   283426756   283461823   283507210   283567764  
  2760.000000   283648003   283751789   283876244   284011741   284150326  
  2755.000000   284289148   284424145   284546943   284651389   284738347  
  2750.000000   284811666   284874592   284932474   284993716   285065137  
  2745.000000   285150366   285253657   285379202   285524389   285679371  
  2740.000000   285835799   285990860   286141087   286278790   286397958  
  2735.000000   286498711   286583805   286656398   286723620   286796278  
  2730.000000   286881909   286982652   287101148   287241849   287403739  
  2725.000000   287577944   287755520   287932193   288103317   288261082  
  2720.000000   288400545   288523182   288632054   288729355   288821304  
  2715.000000   288918830   289029831   289155738   289297602   289458788  
  2710.000000   289638355   289827901   290018240   290203853   290378623  
  2705.000000   290534488   290668354   290784714   290888520   290981525  
  2700.000000   291068329   291158936   291261166   291375984   291503014  
  2695.000000   291644148   291798113   291957504   292114832   292266225  
  2690.000000   292406757   292529022   292630159   292714678   292787619  
  2685.000000   292851127   292910552   292976720   293057932   293155138  
  2680.000000   293267695   293397362   293542868   293696509   293849954  
  2675.000000   293998473   294137215   294260001   294365413   294458588  
  2670.000000   294544346   294624408   294703567   294791688   294896288  
  2665.000000   295018629   295158926   295318371   295493156   295673239  
  2660.000000   295850120   296020000   296177904   296316751   296435543  
  2655.000000   296541528   296641549   296738301   296837144   296947876  
  2650.000000   297075870   297218624   297374185   297545121   297730403  
  2645.000000   297920877   298106998   298284453   298449201   298594940  
  2640.000000   298719963   298829986   298931024   299026390   299123376  
  2635.000000   299234363   299366608   299517266   299681630   299859023  
  2630.000000   300046961   300236799   300419255   300588162   300736432  
  2625.000000   300856473   300948749   301023346   301089962   301152904  
  2620.000000   301217780   301294546   301389945   301503304   301632049  
  2615.000000   301773984   301921899   302064052   302193064   302307304  
  2610.000000   302402067   302468766   302506090   302523673   302531906  
  2605.000000   302536356   302544422   302567677   302613182   302679845  
  2600.000000   302765663   302869856   302984947   303096056   303192346  
  2595.000000   303271695   303331930   303367169   303376982   303370691  
  2590.000000   303358783   303348000   303347377   303369451   303420753  
  2585.000000   303498222   303597564   303716661   303847911   303976586  
  2580.000000   304091145   304187731   304262316   304308223   304325667  
  2575.000000   304325462   304319716   304316574   304326015   304360684  
  2570.000000   304426451   304519599   304635551   304771507   304918080  
  2565.000000   305058482   305180350   305280370   305355355   305399518  
  2560.000000   305414632   305413074   305406720   305401815   305407676  
  2555.000000   305439502   305506827   305607005   305733445   305881139  
  2550.000000   306040250   306193949   306328136   306436425   306513513  
  2545.000000   306553752   306560529   306548178   306530741   306516933  
  2540.000000   306517889   306548751   306617547   306720572   306851341  
  2535.000000   307004438   307167401   307319653   307445191   307538815  
  2530.000000   307597706   307617672   307602174   307565424   307521875  
  2525.000000   307480864   307454020   307457219   307499938   307579953  
  2520.000000   307690730   307824714   307966869   308095826   308196434  
  2515.000000   308263591   308292502   308276784   308220360   308140926  
  2510.000000   308057327   307982069   307927958   307910172   307936252  
  2505.000000   308002191   308101114   308226341   308363264   308489249  
  2500.000000   308586666   308648414   308669394   308644900   308580711  
  2495.000000   308495029   308406008   308326321   308271363   308259742  
  2490.000000   308300136   308386452   308508842   308659066   308821899  
  2485.000000   308973332   309093819   309175656   309215242   309209604  
  2480.000000   309165134   309099544   309030548   308971021   308936672  
  2475.000000   308946226   309008469   309117381   309262479   309434093  
  2470.000000   309616017   309784715   309921494   310017822   310067668  
  2465.000000   310066667   310022673   309956324   309887318   309829272  
  2460.000000   309798625   309815023   309887541   310009823   310171261  
  2455.000000   310361842   310563375   310749053   310898221   311003201  
  2450.000000   311059901   311064296   311023092   310956956   310888047  
  2445.000000   310832930   310808793   310833764   310915387   311046995  
  2440.000000   311217660   311415949   311622488   311811403   311964029  
  2435.000000   312072687   312130617   312131415   312082207   312005680  
  2430.000000   311925194   311857537   311820695   311834479   311907689  
  2425.000000   312033849   312201592   312398566   312603645   312788542  
  2420.000000   312932774   313028364   313069620   313051699   312982809  
  2415.000000   312885884   312784211   312695116   312637651   312632066  
  2410.000000   312686414   312793159   312940800   313117853   313303959  
  2405.000000   313470424   313595112   313668563   313685570   313643639  
  2400.000000   313552803   313435351   313312697   313201595   313122578  
  2395.000000   313097896   313136355   313229590   313364404   313528378  
  2390.000000   313703651   313867305   314001975   314098306   314147182  
  2385.000000   314140066   314078665   313974844   313840284   313685731  
  2380.000000   313530684   313402464   313320484   313291123   313320205  
  2375.000000   313414822   313564444   313734733   313891034   314016185  
  2370.000000   314099692   314131292   314123259   314113955   314117991  
  2365.000000   314104281   314059854   314028238   314037206   314092230  
  2360.000000   314198785   314311404   314381001   314361109   314283957  
  2355.000000   314274821   314326722   314342914   314358439   314502584  
  2350.000000   314666161   314599908   314341700   314198196   314364706  
  2345.000000   314599009   314615424   314507435   314415847   314414115  
  2340.000000   314529921   314722818   314856669   314812722   314628476  
  2335.000000   314462638   314394409   314360491   314307090   314274464  
  2330.000000   314284627   314258387   314216196   314225117   314348805  
  2325.000000   314532973   314724586   314889065   314953505   314870088  
  2320.000000   314669134   314452821   314277290   314134472   314041675  
  2315.000000   314030419   314113069   314224248   314322543   314402103  
  2310.000000   314482008   314535864   314557926   314553164   314531243  
  2305.000000   314470279   314359139   314206100   314028320   313839776  
  2300.000000   313676299   313572187   313541370   313556898   313606208  
  2295.000000   313684352   313787466   313880477   313939164   313955579  
  2290.000000   313926779   313839900   313699513   313537398   313383546  
  2285.000000   313250746   313147802   313091385   313083652   313109985  
  2280.000000   313157932   313230516   313319389   313396264   313436402  
  2275.000000   313436538   313398061   313310674   313175377   313015053  
  2270.000000   312854453   312702175   312567795   312474052   312435663  
  2265.000000   312443883   312486644   312560199   312653804   312737612  
  2260.000000   312785573   312794432   312763664   312685530   312560557  
  2255.000000   312411375   312260988   312118146   311994337   311912095  
  2250.000000   311885316   311903139   311950857   312024137   312113390  
  2245.000000   312191683   312235761   312241437   312208285   312128331  
  2240.000000   312003957   311858180   311713089   311575382   311453400  
  2235.000000   311368423   311333785   311340536   311375353   311434637  
  2230.000000   311508008   311568323   311593621   311582516   311536271  
  2225.000000   311445760   311310702   311152579   310994190   310843353  
  2220.000000   310708862   310611666   310564455   310556540   310572390  
  2215.000000   310607321   310652262   310682993   310680310   310644518  
  2210.000000   310577726   310471274   310325118   310160904   310001096  
  2205.000000   309852260   309721145   309626936   309581359   309573117  
  2200.000000   309586059   309615706   309654300   309678860   309670341  
  2195.000000   309629047   309558036   309450113   309306197   309148240  
  2190.000000   308998567   308862311   308742898   308655650   308610081  
  2185.000000   308595162   308596807   308613226   308638667   308650179  
  2180.000000   308627614   308571865   308489573   308377376   308236341  
  2175.000000   308084788   307940917   307807986   307690442   307606212  
  2170.000000   307566967   307561384   307572208   307594562   307622840  
  2165.000000   307637136   307620651   307576662   307513084   307425962  
  2160.000000   307314296   307195581   307090066   307003097   306937207  
  2155.000000   306905561   306916108   306955581   307005325   307060474  
  2150.000000   307118586   307163186   307176860   307160747   307123999  
  2145.000000   307064803   306981010   306888606   306811394   306759666  
  2140.000000   306731216   306726850   306751236   306802029   306868272  
  2135.000000   306937454   306997896   307038674   307052793   307038082  
  2130.000000   306994932   306928253   306850660   306776651   306714716  
  2125.000000   306670878   306654017   306667620   306702223   306747509  
  2120.000000   306803039   306863680   306908058   306919567   306906072  
  2115.000000   306879374   306830732   306751413   306660967   306585928  
  2110.000000   306525897   306471980   306441554   306456118   306498687  
  2105.000000   306535540   306566159   306608153   306645220   306640455  
  2100.000000   306596652   306545938   306489503   306401815   306292588  
  2095.000000   306209099   306164612   306126455   306087589   306087389  
  2090.000000   306139717   306201869   306242838   306281774   306327912  
  2085.000000   306343255   306301582   306231925   306166165   306090886  
  2080.000000   305993154   305905760   305864447   305856629   305855400  
  2075.000000   305874931   305934717   306012000   306071270   306108031  
  2070.000000   306130973   306122131   306060259   305961818   305863323  
  2065.000000   305778153   305702233   305645258   305621659   305627113  
  2060.000000   305652063   305701226   305775141   305852597   305914805  
  2055.000000   305966551   306008327   306018990   305988422   305934823  
  2050.000000   305875669   305809486   305740038   305692583   305688138  
  2045.000000   305716778   305762166   305833480   305946130   306085294  
  2040.000000   306218433   306331037   306421086   306476421   306486561  
  2035.000000   306464874   306433915   306398716   306361457   306346187  
  2030.000000   306376644   306450883   306551403   306673319   306813963  
  2025.000000   306953648   307074891   307170904   307236709   307253065  
  2020.000000   307208912   307129526   307060667   307024132   307012394  
  2015.000000   307023398   307066310   307139844   307232324   307340152  
  2010.000000   307464862   307594193   307703836   307784278   307835060  
  2005.000000   307843344   307798608   307708748   307604438   307499101  
  2000.000000   307401083   307338131   307320618   307333769   307359234  
  1995.000000   307393944   307442794   307515995   307609091   307689146  
  1990.000000   307720077   307693645   307631806   307556492   307464110  
  1985.000000   307349067   307237307   307164308   307139337   307144965  
  1980.000000   307184458   307272707   307380740   307469740   307536383  
  1975.000000   307590537   307603481   307543072   307424925   307279725  
  1970.000000   307100760   306887572   306704935   306623635   306630805  
  1965.000000   306673819   306741534   306844562   306959510   307049033  
  1960.000000   307119048   307182914   307202526   307133359   306998597  
  1955.000000   306857663   306718029   306564099   306418904   306323459  
  1950.000000   306288934   306280511   306286308   306328630   306394779  
  1945.000000   306438208   306463515   306527499   306613780   306632973  
  1940.000000   306567500   306464259   306348372   306212558   306073357  
  1935.000000   305980185   305951331   305973109   306030097   306129430  
  1930.000000   306278143   306412196   306485300   306499542   306457220  
  1925.000000   306337987   306137083   305944294   305829503   305759980  
  1920.000000   305683942   305638329   305690940   305780245   305829187  
  1915.000000   305890220   306003701   306120290   306159381   306137112  
  1910.000000   306128094   306108925   306027573   305905784   305800771  
  1905.000000   305712031   305583757   305466520   305450335   305503976  
  1900.000000   305552449   305597983   305682045   305787085   305841918  
  1895.000000   305857476   305878723   305859492   305720490   305503416  
  1890.000000   305333427   305215365   305067698   304926808   304877205  
  1885.000000   304915281   304967568   305028763   305147182   305277887  
  1880.000000   305345654   305356290   305350678   305317059   305197637  
  1875.000000   304993858   304779233   304576910   304341989   304088796  
  1870.000000   303942441   303965762   304028232   304093263   304262215  
  1865.000000   304486341   304633004   304676871   304687440   304672274  
  1860.000000   304568148   304390422   304234526   304118655   303985440  
  1855.000000   303850437   303798196   303812516   303824441   303839910  
  1850.000000   303871844   303902210   303903920   303918984   303989888  
  1845.000000   304081241   304061528   303876276   303683772   303535302  
  1840.000000   303377349   303227421   303150225   303148752   303165155  
  1835.000000   303206411   303284048   303341099   303338797   303318533  
  1830.000000   303302910   303218097   303059965   302886032   302716539  
  1825.000000   302591399   302473763   302339682   302245954   302223156  
  1820.000000   302245350   302256474   302287446   302381887   302445879  
  1815.000000   302390860   302240463   302083706   301935070   301726175  
  1810.000000   301513837   301366392   301218459   301033773   300888565  
  1805.000000   300810700   300709302   300576273   300534412   300653321  
  1800.000000   300781887   300747715   300623764   300492572   300332736  
  1795.000000   300135851   299946838   299818483   299679916   299438150  
  1790.000000   299272563   299259590   299268262   299241654   299264133  
  1785.000000   299342180   299339093   299234485   299082897   298934528  
  1780.000000   298809446   298654054   298465302   298219220   297973874  
  1775.000000   297807719   297691627   297600125   297536181   297425509  
  1770.000000   297353369   297392844   297497622   297565862   297527167  
  1765.000000   297407209   297237009   297038588   296782847   296448956  
  1760.000000   296134852   295898415   295722260   295578263   295501000  
  1755.000000   295465987   295385121   295215525   295084250   295036961  
  1750.000000   294873714   294529819   294199221   294005695   293791360  
  1745.000000   293475718   293199013   293057338   292982442   292873852  
  1740.000000   292711625   292529486   292403812   292347367   292249496  
  1735.000000   292205842   292203645   291747103   291140342   290767243  
  1730.000000   290558006   290359661   290120348   289872147   289583964  
  1725.000000   289258352   288937877   288659476   288483802   288363906  
  1720.000000   288157726   287807463   287476994   287133113   286531633  
  1715.000000   285923728   285573688   285367753   285053892   284615643  
  1710.000000   284200503   283861207   283498926   283034123   282558346  
  1705.000000   282163114   281865016   281706108   281598032   281425069  
  1700.000000   280857789   279815670   279126762   278745074   278163366  
  1695.000000   277260900   276500776   276071581   275631694   275042539  
  1690.000000   274398555   273810587   273400227   273144251   272806104  
  1685.000000   272169737   271036531   269613255   268730191   268134783  
  1680.000000   267582890   267172814   266879818   266459447   265774932  
  1675.000000   264957534   264169134   263541534   262989486   262411945  
  1670.000000   261779555   260953149   260129316   259633215   259345722  
  1665.000000   258970921   258351749   257598884   256892291   256277188  
  1660.000000   255810118   255493035   255266259   255064005   254907480  
  1655.000000   254736918   254620337   254192937   252962947   252489765  
  1650.000000   252537512   252452402   252200789   252030302   251942292  
  1645.000000   251900005   251970581   252129572   252368674   252634657  
  1640.000000   252894516   253172933   253507866   253960365   254568218  
  1635.000000   255048855   255326647   255692618   256125827   256616435  
  1630.000000   257194512   257818650   258450874   259125347   259846880  
  1625.000000   260554275   261299814   262180586   263072859   263841069  
  1620.000000   264545516   265279379   266160257   267139674   267916687  
  1615.000000   268497547   269097720   269690679   270275367   270960584  
  1610.000000   271728687   272443492   273110882   273842995   274574094  
  1605.000000   275157070   275649750   276164397   276661020   277042666  
  1600.000000   277349966   277667672   277955137   278153205   278325592  
  1595.000000   278585598   278915071   279203966   279451696   279740014  
  1590.000000   280049487   280276532   280419635   280560416   280689019  
  1585.000000   280700061   280634936   280631187   280640461   280545683  
  1580.000000   280426396   280430113   280516079   280597821   280608195  
  1575.000000   280533613   280502667   280495984   280445483   280380528  
  1570.000000   280304132   280045330   279745558   279621737   279507464  
  1565.000000   279263462   279073964   279090546   279216977   278983437  
  1560.000000   278623255   278831363   278559431   278000304   277769887  
  1555.000000   277743607   277650359   277444502   277145920   276829806  
  1550.000000   276544117   276321227   276151729   275989704   275714095  
  1545.000000   275346395   275036654   274871730   274766913   274636680  
  1540.000000   274336728   273806968   273493567   273423785   273290555  
  1535.000000   272988749   272585799   272133413   271724383   271479160  
  1530.000000   271329730   271125389   270818943   270477716   270175415  
  1525.000000   269927945   269686526   269347878   268884831   268307274  
  1520.000000   267725891   267272781   266763408   266177640   265720380  
  1515.000000   265495731   265355844   265104235   264712741   264219937  
  1510.000000   263703155   263110359   262520097   262008179   261270295  
  1505.000000   260555280   260142573   259819561   259377809   258831029  
  1500.000000   258226851   257604453   256900389   256146526   255420293  
  1495.000000   254837961   254419386   253982655   253309167   252298291  
  1490.000000   251030887   249735379   248585955   247606847   246765357  
  1485.000000   245935676   245052758   244074740   242951856   241770464  
  1480.000000   240676961   239687989   238623185   237367391   236003826  
  1475.000000   234664425   233207801   231412072   229561350   228178745  
  1470.000000   227337091   226750328   226220735   225659892   225007418  
  1465.000000   224291410   223735311   223477808   223423893   223419800  
  1460.000000   223410424   223354887   223201159   223017518   222982207  
  1455.000000   223245403   223601699   223926688   224275167   224640038  
  1450.000000   224909156   225037409   225072140   225070563   225019583  
  1445.000000   224914443   224796701   224629298   224367957   224080815  
  1440.000000   223896111   223751372   223426239   222849665   222251347  
  1435.000000   221884228   221728311   221629583   221522694   221381256  
  1430.000000   221151948   220901774   220753099   220697512   220550508  
  1425.000000   220235467   219986683   219983922   220108491   220129390  
  1420.000000   220003253   219827775   219698841   219783675   220122210  
  1415.000000   220548308   220878218   221089388   221303428   221568822  
  1410.000000   221816591   222041105   222281200   222524589   222709164  
  1405.000000   222861927   223128108   223507364   223844765   224037667  
  1400.000000   224141704   224241005   224307836   224298062   224212085  
  1395.000000   224059978   223808911   223503988   223239180   222971603  
  1390.000000   222578783   221980814   221223928   220477680   219900813  
  1385.000000   219522722   219277206   219074515   218851192   218583576  
  1380.000000   218289558   218013327   217755355   217463891   217098467  
  1375.000000   216694227   216338991   216118965   216060668   216110052  
  1370.000000   216173876   216217529   216317311   216512594   216718454  
  1365.000000   216819115   216811537   216817461   216933729   217142933  
  1360.000000   217397793   217668849   217919103   218125618   218319772  
  1355.000000   218545635   218799948   219051117   219274128   219473707  
  1350.000000   219637084   219737376   219799473   219846693   219861255  
  1345.000000   219825707   219772372   219721626   219636415   219507060  
  1340.000000   219456782   219640286   220057896   220604417   221222831  
  1335.000000   221900332   222603438   223299688   224003747   224740062  
  1330.000000   225485545   226208321   226920303   227639616   228332727  
  1325.000000   228965941   229566208   230150109   230676602   231116741  
  1320.000000   231514440   231916535   232301729   232630042   232901090  
  1315.000000   233117599   233261393   233347397   233435437   233552701  
  1310.000000   233665322   233761136   233886664   234076894   234299165  
  1305.000000   234516765   234748982   235011066   235273280   235512395  
  1300.000000   235749712   235994877   236218783   236412283   236614416  
  1295.000000   236846055   237075123   237285437   237510510   237767923  
  1290.000000   238025244   238264861   238517076   238790250   239033101  
  1285.000000   239207029   239330738   239421618   239459957   239440518  
  1280.000000   239403339   239374380   239330881   239259601   239187958  
  1275.000000   239124908   239026935   238864603   238665102   238451354  
  1270.000000   238194623   237870375   237506731   237133195   236739292  
  1265.000000   236324328   235928206   235575203   235240820   234910675  
  1260.000000   234621191   234393858   234184739   233949043   233694827  
  1255.000000   233432450   233128927   232761311   232362747   231968016  
  1250.000000   231562744   231135755   230730564   230391143   230108728  
  1245.000000   229874639   229728576   229700438   229754429   229845704  
  1240.000000   229979414   230161310   230347261   230498999   230637603  
  1235.000000   230788697   230928328   231035776   231145428   231291695  
  1230.000000   231454467   231608299   231770496   231950673   232104449  
  1225.000000   232186106   232197048   232137040   231962121   231637800  
  1220.000000   231184272   230624946   229941637   229128065   228239421  
  1215.000000   227341349   226451919   225580059   224773083   224070201  
  1210.000000   223449465   222875314   222358770   221914909   221505663  
  1205.000000   221086919   220674468   220301949   219950643   219583327  
  1200.000000   219211144   218861674   218514714   218132140   217713878  
  1195.000000   217262097   216723822   216032764   215178123   214171982  
  1190.000000   212983507   211570930   209953187   208186445   206290436  
  1185.000000   204260195   202130537   199958872   197753761   195490543  
  1180.000000   193191221   190911664   188652308   186365796   184054244  
  1175.000000   181773822   179540598   177326522   175156247   173106008  
  1170.000000   171196626   169391915   167712941   166240508   164989878  
  1165.000000   163900490   162963571   162235981   161713815   161321115  
  1160.000000   161039276   160918097   160948222   161057469   161243823  
  1155.000000   161577420   162063003   162635976   163299324   164126386  
  1150.000000   165122650   166219826   167407733   168735807   170183480  
  1145.000000   171660771   173134154   174623296   176080531   177400590  
  1140.000000   178541690   179518507   180290763   180779307   180984000  
  1135.000000   180975210   180777970   180373156   179805412   179178787  
  1130.000000   178543629   177890361   177250949   176694548   176220128  
  1125.000000   175763748   175314330   174912948   174541713   174130535  
  1120.000000   173673818   173224533   172774252   172258096   171678900  
  1115.000000   171105939   170548116   169950183   169319057   168730119  
  1110.000000   168199026   167675438   167168621   166751995   166435306  
  1105.000000   166154076   165893135   165691104   165515821   165270316  
  1100.000000   164925160   164523050   164048758   163424650   162649759  
  1095.000000   161806592   160921606   159950316   158914177   157913858  
  1090.000000   156986520   156085818   155222104   154481294   153883956  
  1085.000000   153369741   152943957   152695441   152649825   152753792  
  1080.000000   153024414   153563957   154408314   155509567   156876298  
  1075.000000   158565481   160511186   162504832   164347627   165885803  
  1070.000000   166924249   167277138   166925637   166012380   164682070  
  1065.000000   163035030   161219054   159416177   157705378   156058688  
  1060.000000   154490680   153081403   151837472   150677163   149580742  
  1055.000000   148615812   147790365   147027246   146316011   145735074  
  1050.000000   145283134   144854811   144418787   144046488   143744579  
  1045.000000   143432749   143100855   142825071   142612835   142384583  
  1040.000000   142125750   141903782   141714695   141466290   141135896  
  1035.000000   140794211   140451750   140033260   139528340   139017614  
  1030.000000   138524429   137988422   137410095   136872604   136394633  
  1025.000000   135910335   135419545   135006899   134687232   134384434  
  1020.000000   134089413   133885825   133792424   133732535   133686104  
  1015.000000   133719907   133841602   133975483   134107142   134299923  
  1010.000000   134543090   134735479   134846337   134944709   135045368  
  1005.000000   135074201   135013388   134934782   134860487   134732935  
  1000.000000   134551442   134396638   134290362   134171826   134041235  
   995.000000   133986240   134036889   134134698   134274561   134537351  
   990.000000   134953611   135474065   136102027   136916192   137937334  
   985.000000   139111373   140446897   142029766   143879545   145927735  
   980.000000   148154778   150611696   153291001   156109312   159030685  
   975.000000   162082287   165243209   168439670   171651924   174911192  
   970.000000   178194657   181433198   184615457   187781033   190922051  
   965.000000   193988789   196978422   199926511   202826439   205640819  
   960.000000   208373551   211054162   213673764   216205953   218661780  
   955.000000   221056358   223351311   225491998   227466844   229271003  
   950.000000   230848378   232126393   233073672   233676049   233898494  
   945.000000   233726258   233216077   232464024   231547954   230535426  
   940.000000   229512185   228549104   227656731   226816721   226039686  
   935.000000   225348814   224733081   224171846   223686693   223315179  
   930.000000   223052001   222870389   222781861   222818589   222977490  
   925.000000   223240646   223631477   224191797   224922029   225799441  
   920.000000   226830412   228025477   229347742   230743452   232196616  
   915.000000   233701035   235213715   236692164   238143880   239586665  
   910.000000   240995458   242336619   243615198   244840112   245982629  
   905.000000   247015568   247955094   248823713   249613036   250321985  
   900.000000   250990821   251660843   252337599   253025764   253759276  
   895.000000   254564144   255431881   256357430   257359636   258436802  
   890.000000   259547578   260660524   261774112   262867619   263887995  
   885.000000   264807275   265636787   266365595   266943671   267343461  
   880.000000   267577534   267639550   267490449   267118757   266551688  
   875.000000   265790740   264797678   263562498   262132701   260563271  
   870.000000   258889911   257165174   255470055   253865732   252371411  
   865.000000   251012329   249853726   248960592   248354980   248036110  
   860.000000   247998975   248194757   248514728   248860388   249200370  
   855.000000   249531012   249830648   250091626   250349973   250639390  
   850.000000   250953918   251291266   251688582   252175526   252734497  
   845.000000   253346174   254029602   254796405   255609495   256428960  
   840.000000   257258291   258109678   258968843   259829147   260714504  
   835.000000   261634021   262558262   263470861   264394470   265332866  
   830.000000   266237146   267063557   267815238   268493967   269065804  
   825.000000   269510167   269846645   270081009   270185493   270161959  
   820.000000   270065725   269943985   269802865   269649714   269513791  
   815.000000   269402709   269283739   269129644   268941952   268713929  
   810.000000   268416859   268041513   267608516   267121660   266556813  
   805.000000   265914549   265239049   264561988   263870044   263150938  
   800.000000   262429546   261732200   261052991   260382207   259731115  
   795.000000   259100455   258460481   257791460   257109747   256426998  
   790.000000   255720850   254976103   254217583   253469102   252713626  
   785.000000   251927407   251119006   250294723   249418214   248446706  
   780.000000   247379294   246230945   244989468   243642988   242225625  
   775.000000   240791649   239365543   237961692   236630791   235435245  
   770.000000   234394642   233505321   232795277   232303482   232019587  
   765.000000   231901997   231941060   232146811   232491934   232928390  
   760.000000   233445822   234053856   234724832   235415975   236130972  
   755.000000   236899183   237711414   238536374   239378677   240256559  
   750.000000   241140651   241974422   242737399   243432153   244028978  
   745.000000   244483102   244792192   244981395   245048873   244983433  
   740.000000   244818265   244607752   244363165   244064596   243719586  
   735.000000   243351250   242942354   242454892   241893412   241286713  
   730.000000   240616949   239841369   238967002   238031413   237044848  
   725.000000   236009562   234967406   233964105   232982906   231981047  
   720.000000   230983991   230069611   229262681   228526651   227845184  
   715.000000   227232974   226681620   226171531   225727432   225399317  
   710.000000   225195419   225092919   225103298   225250849   225521452  
   705.000000   225891748   226368182   226954182   227599420   228230388  
   700.000000   228829540   229411153   229946659   230384498   230709032  
   695.000000   230943989   231097646   231159831   231163534   231158119  
   690.000000   231142639   231090788   231017502   230969842   230943879  
   685.000000   230887395   230794161   230699574   230595762   230438300  
   680.000000   230229402   230011097   229779007   229509439   229217194  
   675.000000   228934397   228668459   228376555   228035891   227549097  
   670.000000   226808927   225661120   224604111   224847374   225863007  
   665.000000   226555642   226848988   226889859   226775363   226524672  
   660.000000   226207807   225929563   225697860   225477110   225277619  
   655.000000   225141660   225060657   224986115   224910995   224853197  
   650.000000   224774814   224621248   224411920   224194581   223965749  
   645.000000   223692003   223390256   223121016   222888557   222654221  
   640.000000   222440608   222301800   222209716   222080540   221895919  
   635.000000   221708538   221522911   221266752   220899021   220445708  
   630.000000   219920924   219308628   218632090   217945556   217262026  
   625.000000   216547814   215812621   215124112   214500011   213894074  
   620.000000   213300177   212759906   212253612   211707676   211132223  
   615.000000   210626466   210218830   209832974   209441496   209118938  
   610.000000   208906755   208757678   208659799   208665656   208770786  
   605.000000   208885915   208972225   209073961   209183595   209228164  
   600.000000   209222956   209264754   209340235   209320722   209169646  
   595.000000   208985651   208811855   208574105   208249222   207912906  
   590.000000   207553327   207027440   206266058   205349293   204346496  
   585.000000   203235657   202047207   200910239   199878344   198886573  
   580.000000   197957946   197241071   196773864   196444459   196236018  
   575.000000   196282771   196611621   197089713   197677942   198476888  
   570.000000   199480305   200521986   201518992   202531694   203556915  
   565.000000   204490766   205326134   206168120   207034680   207831411  
   560.000000   208536698   209223864   209883565   210408859   210786289  
   555.000000   211135049   211512599   211838559   212050861   212184971  
   550.000000   212265001   212260304   212184782   212103211   212002793  
   545.000000   211790186   211442093   211020409   210528340   209895614  
   540.000000   209131165   208341730   207573891   206781877   205997382  
   535.000000   205344496   204845227   204384564   203934657   203625966  
   530.000000   203511374   203468607   203430298   203498096   203725033  
   525.000000   203999599   204261397   204590813   205007406   205416660  
   520.000000   205811299   206322469   206978103   207628977   208218121  
   515.000000   208859296   209585746   210278931   210890423   211501049  
   510.000000   212118657   212622870   212996483   213398001   213893060  
   505.000000   214349495   214681883   214975783   215296033   215560207  
   500.000000   215734832   215922547   216169995   216397719   216557919  
   495.000000   216703929   216845433   216908908   216927076   217032060  
   490.000000   217213165   217303928   217249850   217180623   217175741  
   485.000000   217169381   217152372   217239009   217446396   217664359  
   480.000000   217883330   218183150   218507584   218698173   218786460  
   475.000000   218983133   219358246   219754304   220092461   220467202  
   470.000000   220889079   221267658   221632851   222097562   222623508  
   465.000000   223074005   223466676   223937642   224440466   224760590  
   460.000000   224837390   224825045   224864140   224939705   224998349  
   455.000000   225028507   224958035   224709043   224410798   224263365  
   450.000000   224185860   223912113   223410063   222926667   222570798  
   445.000000   222145767   221519708   220867450   220376943   220003241  
   440.000000   219687023   219500812   219450972   219451017   219570817  
   435.000000   219964036   220500823   220919353   221285310   221864323  
   430.000000   222549234   222899411   222829896   222746560   222948326  
   425.000000   223296011   223649153   224123758   224712761   225168276  
   420.000000   225502476   226146646   226877463   226926756   226504312  
   415.000000   226157482   225933438   225505384   224808920   224255216  
   410.000000   224071785   223994727   223921885   224168072   224755204  
   405.000000   225223776   225515168   226096128   227052953   227728497  
   400.000000   227726639  
##END= 
