##TITLE= Amostra 012 por Administrator data segunda-feira, julho 16 2012
##JCAMP-DX= 4.24
##DATA TYPE= INFRARED SPECTRUM
##ORIGIN= Exported PE Spectrum Data File
##OWNER= Administrator
##DATE= 12/07/16
##TIME= 09:17:36.00
##SPECTROMETER/DATA SYSTEM= PERKIN-ELMER Spectrum 100 IR
##INSTRUMENT PARAMETERS=
  APODIZATION=Forte
  DETECTOR=MIR TGS
##RESOLUTION= 4.000000
##DELTAX= -1.00
##XUNITS= 1/CM
##YUNITS= %T
##XFACTOR= 1.00
##YFACTOR= 0.00000023841857910156
##FIRSTX= 4000.00
##LASTX= 400.00
##NPOINTS= 3601
##FIRSTY= 65.067556
##MAXY= 75.057293
##MINY= 31.888855
##XYDATA= (X++(Y..Y))
  4000.000000   272913110   272853143   272786461   272732081   272681061  
  3995.000000   272612336   272532354   272473718   272449640   272435846  
  3990.000000   272409732   272379355   272354471   272317211   272251469  
  3985.000000   272180709   272142624   272136690   272123565   272072658  
  3980.000000   271989521   271895450   271804236   271731791   271700354  
  3975.000000   271708623   271720387   271704394   271672751   271651035  
  3970.000000   271643418   271636783   271613570   271557118   271460775  
  3965.000000   271348190   271259944   271214485   271190928   271166486  
  3960.000000   271148629   271130718   271084174   271009694   270940041  
  3955.000000   270885221   270804675   270674685   270526172   270422328  
  3950.000000   270405088   270440198   270436192   270357269   270274991  
  3945.000000   270254555   270273835   270267362   270217526   270198756  
  3940.000000   270263400   270286064   270120249   269819981   269565404  
  3935.000000   269451114   269426014   269465260   269599847   269767480  
  3930.000000   269808147   269641791   269395577   269255656   269228549  
  3925.000000   269168935   269037546   268984437   269042643   269011764  
  3920.000000   268840264   268778238   268974187   269207721   269227985  
  3915.000000   269116415   269058164   269008427   268855897   268610028  
  3910.000000   268341924   268069471   267754330   267436211   267228466  
  3905.000000   267211826   267313239   267468898   267785829   268246088  
  3900.000000   268500011   268305939   267891652   267608618   267460755  
  3895.000000   267238201   267012319   267078734   267377260   267327982  
  3890.000000   266821914   266548606   266703660   266839617   266653720  
  3885.000000   266215303   265988343   266305686   266755049   266875667  
  3880.000000   266587335   266116778   265944307   266081602   266058104  
  3875.000000   265662501   265081129   264809026   265205965   265851182  
  3870.000000   265885454   265170247   264739680   265115681   265397123  
  3865.000000   265088800   264765663   264836145   265001655   264862766  
  3860.000000   264472563   264072468   263626811   263025704   262479651  
  3855.000000   262639707   263761923   264237212   263156617   262620215  
  3850.000000   263183251   263529078   263341980   263029216   262820990  
  3845.000000   262643324   262406683   262131373   261976189   262026986  
  3840.000000   262177543   262322514   262361743   262193054   261909870  
  3835.000000   261772121   261865410   262003794   261920300   261603737  
  3830.000000   261347224   261350197   261435923   261251426   260707414  
  3825.000000   260172098   260004359   260114671   260289003   260152698  
  3820.000000   259561363   259482326   260162758   260596708   260276084  
  3815.000000   259546610   259250770   259522278   259549721   259041978  
  3810.000000   258538655   258497731   258738044   258630539   258013873  
  3805.000000   257640364   257887413   258211085   258213722   257723462  
  3800.000000   257130255   257240380   257668098   257655283   257271125  
  3795.000000   256967098   256951699   256970865   256764852   256433583  
  3790.000000   256175687   255984469   255785488   255618480   255531282  
  3785.000000   255402394   255124314   254838782   254716211   254683979  
  3780.000000   254605021   254427983   254253347   254242177   254248787  
  3775.000000   253977345   253476449   253096823   253001719   252992113  
  3770.000000   252808498   252507927   252418448   252569135   252552285  
  3765.000000   252156069   251685373   251514481   251488440   251229596  
  3760.000000   250851180   250677075   250618557   250391789   249980246  
  3755.000000   249534056   249057120   248598903   248543630   249013432  
  3750.000000   249192852   248641314   248161212   248282146   248649679  
  3745.000000   248761011   248009578   246831162   246644090   246985981  
  3740.000000   246650807   245820337   245207987   245087471   245236329  
  3735.000000   245436331   245653212   245744008   245415647   244817503  
  3730.000000   244474353   244472094   244397915   244021423   243571657  
  3725.000000   243363280   243338293   243168051   242781144   242381960  
  3720.000000   242123161   241921919   241603484   241177509   240805788  
  3715.000000   240524360   240213763   239938316   239914836   239965049  
  3710.000000   239730894   239322540   238965485   238639858   238291305  
  3705.000000   237940814   237606646   237281057   236923236   236474707  
  3700.000000   236047140   235814865   235630579   235234805   234678950  
  3695.000000   234203832   233832984   233339068   232662299   232067123  
  3690.000000   231748836   231406354   230735331   230164733   230121428  
  3685.000000   230247922   230059960   229587151   229109254   228678658  
  3680.000000   228086962   227352862   226779731   226471458   226130475  
  3675.000000   225215697   224226902   224245096   224568453   224110487  
  3670.000000   223089859   222066895   221483999   221386378   221273286  
  3665.000000   220859637   220272366   219668644   219050070   218390270  
  3660.000000   217751243   217224903   216772435   216234497   215490856  
  3655.000000   214765381   214424284   214174498   213388042   212170659  
  3650.000000   211315067   210964780   210434974   209635335   209108963  
  3645.000000   209008577   208974068   208657210   208070159   207468092  
  3640.000000   206980831   206505311   205928285   205342030   204851591  
  3635.000000   204358904   203755880   203173172   202772276   202332953  
  3630.000000   201547410   200415383   199147094   198397534   198440571  
  3625.000000   198536881   198227989   197689279   197116387   196465646  
  3620.000000   195675718   194837974   194135550   193758836   193620691  
  3615.000000   193364898   192829917   192192130   191702920   191392136  
  3610.000000   191011836   190359723   189561108   188898453   188516269  
  3605.000000   188297136   188003163   187531088   186937200   186311476  
  3600.000000   185739530   185291407   184923371   184508699   183980892  
  3595.000000   183382331   182828745   182439752   182247733   182100835  
  3590.000000   181739428   181019886   180085762   179221638   178674730  
  3585.000000   178525253   178549972   178464055   178208523   177877893  
  3580.000000   177545468   177221830   176893439   176550815   176202598  
  3575.000000   175860732   175548821   175293993   175098537   174909550  
  3570.000000   174615560   174104672   173403594   172699790   172184726  
  3565.000000   171966825   171957739   171914837   171722389   171459079  
  3560.000000   171234593   171080097   170968251   170859730   170719858  
  3555.000000   170513131   170210746   169838391   169495461   169290486  
  3550.000000   169212735   169091179   168761237   168262525   167790005  
  3545.000000   167489095   167370857   167371856   167417748   167441077  
  3540.000000   167393379   167254316   167030853   166771138   166555047  
  3535.000000   166447213   166431300   166414421   166313956   166125835  
  3530.000000   165893537   165638842   165368743   165114181   164907373  
  3525.000000   164728910   164551897   164410213   164360807   164387915  
  3520.000000   164396132   164309577   164144455   163970963   163827144  
  3515.000000   163700962   163581575   163478632   163380741   163247239  
  3510.000000   163071884   162914703   162841166   162829968   162762730  
  3505.000000   162536132   162185554   161862952   161693223   161672718  
  3500.000000   161701113   161677924   161570206   161413822   161272690  
  3495.000000   161189425   161160444   161152138   161129626   161070210  
  3490.000000   160962842   160811934   160651925   160540246   160506949  
  3485.000000   160508461   160451118   160278036   160029655   159813463  
  3480.000000   159713542   159726131   159776895   159789194   159739151  
  3475.000000   159651704   159555810   159454324   159333110   159186814  
  3470.000000   159031481   158893946   158794482   158742238   158734778  
  3465.000000   158747753   158733718   158658023   158540169   158442836  
  3460.000000   158411888   158435353   158466486   158472825   158450280  
  3455.000000   158410858   158367840   158328825   158297634   158271404  
  3450.000000   158227227   158123714   157952088   157778668   157698745  
  3445.000000   157732357   157795627   157798497   157738999   157670163  
  3440.000000   157610763   157533979   157431646   157341203   157297402  
  3435.000000   157296482   157311321   157317766   157306971   157289268  
  3430.000000   157288976   157322343   157385284   157463045   157543703  
  3425.000000   157613857   157651246   157636567   157576390   157509628  
  3420.000000   157482310   157512020   157573317   157617912   157616546  
  3415.000000   157583403   157557315   157562354   157593780   157637200  
  3410.000000   157687911   157748205   157816479   157881812   157924517  
  3405.000000   157926077   157884905   157825595   157788171   157803499  
  3400.000000   157872580   157967590   158057817   158133100   158196795  
  3395.000000   158242079   158256181   158253335   158282569   158384059  
  3390.000000   158545468   158714024   158846860   158937288   158998648  
  3385.000000   159044670   159087329   159137486   159198244   159265364  
  3380.000000   159337408   159418268   159510403   159610808   159713426  
  3375.000000   159809317   159887038   159938946   159969119   159992653  
  3370.000000   160028233   160091430   160190323   160323980   160482440  
  3365.000000   160648094   160800519   160927053   161033607   161142919  
  3360.000000   161275020   161427111   161575766   161699676   161796471  
  3355.000000   161875938   161944640   162005509   162069987   162159428  
  3350.000000   162289075   162451731   162619706   162765344   162878789  
  3345.000000   162969818   163055597   163145980   163239209   163329617  
  3340.000000   163417047   163508556   163613827   163739215   163884126  
  3335.000000   164041201   164199815   164350433   164488039   164611816  
  3330.000000   164720789   164811718   164885549   164955747   165042997  
  3325.000000   165159214   165298663   165445272   165586972   165720783  
  3320.000000   165846919   165965088   166077484   166188891   166300638  
  3315.000000   166407785   166505311   166592865   166670266   166733729  
  3310.000000   166783279   166831367   166897866   166995004   167120576  
  3305.000000   167265397   167421799   167583289   167740407   167881336  
  3300.000000   167996625   168085360   168158330   168233442   168323485  
  3295.000000   168426127   168530774   168636106   168754202   168894776  
  3290.000000   169051102   169205290   169345532   169473751   169596561  
  3285.000000   169715931   169831894   169946749   170063453   170182345  
  3280.000000   170298678   170404099   170492807   170567282   170637064  
  3275.000000   170711343   170794409   170889847   171005316   171149048  
  3270.000000   171320916   171508511   171694065   171865286   172019726  
  3265.000000   172162801   172302984   172443256   172579729   172708905  
  3260.000000   172830300   172944717   173056773   173177082   173316659  
  3255.000000   173479671   173660507   173847730   174027957   174188331  
  3250.000000   174324903   174449558   174582125   174733739   174902223  
  3245.000000   175083223   175276849   175479401   175679879   175871196  
  3240.000000   176056504   176238936   176413333   176573853   176725709  
  3235.000000   176885549   177069152   177281782   177517157   177760287  
  3230.000000   177995564   178216808   178429724   178645090   178869391  
  3225.000000   179101842   179337843   179570504   179793106   180006491  
  3220.000000   180222119   180452352   180698609   180949568   181190752  
  3215.000000   181420159   181652342   181901678   182164158   182423052  
  3210.000000   182671710   182921730   183186925   183467751   183755417  
  3205.000000   184044328   184334447   184624831   184912605   185196209  
  3200.000000   185474615   185747073   186017897   186296779   186589139  
  3195.000000   186890911   187195621   187502835   187815635   188134745  
  3190.000000   188460187   188794007   189135495   189475583   189805239  
  3185.000000   190125850   190443967   190762296   191081103   191402481  
  3180.000000   191728828   192061900   192405791   192765729   193140233  
  3175.000000   193519604   193895815   194270002   194645744   195020263  
  3170.000000   195388644   195751762   196113620   196474445   196834304  
  3165.000000   197198245   197570757   197951135   198338338   198734177  
  3160.000000   199138245   199544813   199947194   200341139   200723398  
  3155.000000   201094141   201463836   201850971   202267073   202706558  
  3150.000000   203153930   203597141   204032480   204462148   204891219  
  3145.000000   205323257   205755367   206180223   206595584   207011938  
  3140.000000   207446432   207907360   208387914   208872766   209345697  
  3135.000000   209795508   210222798   210640347   211062714   211498774  
  3130.000000   211954930   212435204   212933407   213433759   213923537  
  3125.000000   214397343   214852345   215289922   215718708   216149720  
  3120.000000   216587512   217029232   217475775   217937567   218423875  
  3115.000000   218933144   219456054   219980546   220493864   220992171  
  3110.000000   221489794   222007208   222547231   223092084   223622132  
  3105.000000   224125179   224596339   225041930   225480225   225932383  
  3100.000000   226410603   226913698   227432914   227960886   228493823  
  3095.000000   229027419   229554307   230067875   230568206   231063231  
  3090.000000   231560181   232055781   232539736   233007664   233466349  
  3085.000000   233924734   234386700   234854706   235334259   235832355  
  3080.000000   236353686   236899669   237468385   238051737   238632744  
  3075.000000   239193110   239723359   240221756   240689558   241131042  
  3070.000000   241556101   241980587   242423156   242898560   243409437  
  3065.000000   243945244   244492820   245044509   245593366   246128284  
  3060.000000   246640477   247131650   247609973   248080634   248541831  
  3055.000000   248988013   249415432   249826540   250235428   250663804  
  3050.000000   251123721   251607761   252099164   252587848   253073540  
  3045.000000   253558075   254041168   254519850   254988802   255441320  
  3040.000000   255869962   256268755   256635469   256976417   257310738  
  3035.000000   257662743   258048051   258468584   258916375   259378007  
  3030.000000   259837108   260277415   260686918   261061806   261406684  
  3025.000000   261727822   262026666   262300060   262545597   262767653  
  3020.000000   262980674   263203692   263447309   263707796   263974750  
  3015.000000   264240541   264500975   264752206   264989042   265202088  
  3010.000000   265375567   265493033   265548453   265550484   265515563  
  3005.000000   265458817   265390689   265316484   265234772   265140342  
  3000.000000   265033064   264917712   264793532   264649482   264470545  
  2995.000000   264246661   263974826   263656657   263296999   262901838  
  2990.000000   262475825   262024053   261554836   261076293   260591229  
  2985.000000   260098908   259599811   259095600   258585986   258068278  
  2980.000000   257538865   256991531   256415797   255803174   255157224  
  2975.000000   254493552   253827763   253165948   252506661   251847363  
  2970.000000   251186690   250523762   249857478   249184236   248495989  
  2965.000000   247782573   247035696   246250161   245422344   244550162  
  2960.000000   243635514   242684833   241706270   240707137   239695168  
  2955.000000   238681644   237681050   236704581   235752696   234815499  
  2950.000000   233881656   232946606   232012672   231084290   230165547  
  2945.000000   229261313   228378039   227522318   226700009   225917866  
  2940.000000   225186022   224518144   223927638   223422451   223003835  
  2935.000000   222670367   222421331   222255324   222168647   222157572  
  2930.000000   222220017   222352379   222546875   222795289   223093899  
  2925.000000   223442278   223838824   224279885   224761291   225277759  
  2920.000000   225821990   226386248   226963341   227544006   228115593  
  2915.000000   228665905   229187037   229673949   230121661   230527006  
  2910.000000   230890182   231214354   231504790   231767694   232010521  
  2905.000000   232240126   232459630   232669250   232867388   233052035  
  2900.000000   233217393   233359424   233479819   233583567   233677091  
  2895.000000   233766167   233857139   233957476   234076486   234226211  
  2890.000000   234420421   234670922   234984925   235366275   235817110  
  2885.000000   236336580   236919575   237558839   238248010   238981802  
  2880.000000   239754587   240560059   241391494   242242263   243107877  
  2875.000000   243988151   244885424   245799197   246723100   247647190  
  2870.000000   248562119   249461377   250340858   251196449   252021634  
  2865.000000   252808491   253552043   254252434   254912190   255533565  
  2860.000000   256120075   256678363   257216436   257741648   258261427  
  2855.000000   258783167   259310501   259840710   260367411   260884736  
  2850.000000   261388479   261875733   262344960   262794715   263221916  
  2845.000000   263624522   264007149   264381119   264757709   265143897  
  2840.000000   265544528   265963282   266398716   266842930   267286888  
  2835.000000   267724418   268149721   268555548   268937117   269294859  
  2830.000000   269631068   269947320   270247657   270540828   270836522  
  2825.000000   271141703   271461687   271800164   272155334   272519321  
  2820.000000   272883930   273243915   273593182   273922752   274225991  
  2815.000000   274502710   274755989   274989149   275208568   275425018  
  2810.000000   275648229   275882750   276130880   276395514   276676583  
  2805.000000   276967725   277259489   277543402   277811688   278057293  
  2800.000000   278277510   278474764   278651983   278810664   278955085  
  2795.000000   279094253   279237219   279389902   279557572   279745274  
  2790.000000   279952428   280170434   280388200   280597177   280790281  
  2785.000000   280961127   281107496   281232021   281337511   281425397  
  2780.000000   281500291   281571546   281647975   281734826   281836916  
  2775.000000   281959325   282101980   282257339   282415798   282569937  
  2770.000000   282712491   282835698   282935691   283014213   283074402  
  2765.000000   283119060   283154409   283190599   283236171   283295678  
  2760.000000   283373245   283473040   283594092   283729225   283870897  
  2755.000000   284013704   284150379   284271706   284373386   284458536  
  2750.000000   284531703   284595380   284654065   284716072   284788622  
  2745.000000   284875381   284979864   285105447   285249687   285403881  
  2740.000000   285560464   285716119   285866353   286003267   286121437  
  2735.000000   286221168   286304690   286375141   286440954   286514438  
  2730.000000   286603009   286706984   286827305   286968240   287129541  
  2725.000000   287302732   287478787   287653674   287823340   287979980  
  2720.000000   288117913   288238380   288345505   288442836   288536742  
  2715.000000   288637103   288750620   288877834   289019177   289178262  
  2710.000000   289355777   289545160   289737324   289925077   290100987  
  2705.000000   290257280   290391603   290508238   290611446   290702932  
  2700.000000   290787724   290875917   290975348   291087709   291213728  
  2695.000000   291355566   291511078   291671818   291830019   291982239  
  2690.000000   292124003   292247726   292349649   292433396   292504179  
  2685.000000   292565459   292623862   292690472   292773089   292872084  
  2680.000000   292986197   293116523   293261703   293414801   293568142  
  2675.000000   293716616   293854614   293975979   294079820   294171287  
  2670.000000   294255006   294333461   294412732   294502635   294608975  
  2665.000000   294731802   294872280   295033346   295211172   295393623  
  2660.000000   295570373   295738168   295894471   296034023   296155100  
  2655.000000   296262292   296360383   296452375   296545646   296652069  
  2650.000000   296778557   296923688   297085190   297262817   297451629  
  2645.000000   297640927   297823408   297998149   298162276   298308388  
  2640.000000   298433842   298544718   298647531   298745103   298843604  
  2635.000000   298954530   299084830   299232089   299392965   299568531  
  2630.000000   299757024   299948638   300131996   300299983   300446827  
  2625.000000   300567353   300662984   300742000   300811244   300874251  
  2620.000000   300938689   301016510   301113438   301225873   301350471  
  2615.000000   301488066   301635141   301780241   301912776   302028068  
  2610.000000   302121431   302186587   302224001   302242991   302252478  
  2605.000000   302257351   302265901   302290994   302339602   302408743  
  2600.000000   302494304   302595153   302705562   302812981   302907729  
  2595.000000   302987258   303048336   303084591   303095972   303092304  
  2590.000000   303083777   303076110   303077618   303101048   303153352  
  2585.000000   303231097   303329166   303445597   303574351   303702280  
  2580.000000   303817920   303916177   303991875   304038087   304055327  
  2575.000000   304054683   304048399   304044719   304053680   304087935  
  2570.000000   304153320   304245953   304361006   304495658   304640922  
  2565.000000   304780455   304901883   305001541   305076031   305119567  
  2560.000000   305133876   305131442   305124845   305121310   305130348  
  2555.000000   305166169   305237023   305339620   305467263   305614827  
  2550.000000   305772361   305923282   306054042   306158835   306233036  
  2545.000000   306271887   306279433   306269821   306256193   306246375  
  2540.000000   306250997   306284846   306355632   306459632   306590773  
  2535.000000   306744119   306907332   307059615   307184726   307277479  
  2530.000000   307335311   307354279   307337863   307300149   307255692  
  2525.000000   307214304   307188055   307192695   307236935   307317630  
  2520.000000   307427824   307560420   307701443   307830170   307930715  
  2515.000000   307996293   308021330   308000847   307941292   307861659  
  2510.000000   307779965   307707158   307655481   307640560   307670151  
  2505.000000   307739581   307840947   307966852   308102304   308224558  
  2500.000000   308316609   308373039   308390653   308365307   308301631  
  2495.000000   308216500   308128158   308050383   307998993   307991826  
  2490.000000   308036683   308127257   308253468   308406178   308569280  
  2485.000000   308718825   308836028   308913818   308949106   308939710  
  2480.000000   308892689   308825578   308755433   308695061   308660793  
  2475.000000   308671689   308736181   308847903   308996476   309172219  
  2470.000000   309358222   309529935   309668071   309764143   309812568  
  2465.000000   309809600   309763637   309695585   309625282   309566673  
  2460.000000   309536651   309554961   309630131   309754695   309916754  
  2455.000000   310105647   310304175   310487895   310637604   310744256  
  2450.000000   310800908   310802640   310758264   310690805   310622413  
  2445.000000   310568146   310544633   310570729   310654494   310789016  
  2440.000000   310963121   311165126   311374507   311563588   311713059  
  2435.000000   311816733   311870237   311868615   311819037   311743590  
  2430.000000   311665187   311600632   311568119   311586999   311664358  
  2425.000000   311791745   311957557   312151480   312354674   312539139  
  2420.000000   312682856   312776515   312814480   312792825   312720736  
  2415.000000   312622130   312521171   312435178   312381764   312379139  
  2410.000000   312434323   312540475   312687653   312865322   313052833  
  2405.000000   313220600   313346062   313420062   313437680   313395991  
  2400.000000   313304293   313184986   313060753   312949548   312871592  
  2395.000000   312847472   312884781   312975926   313110015   313276460  
  2390.000000   313457161   313627066   313766331   313864320   313912318  
  2385.000000   313903385   313841222   313739351   313610221   313464168  
  2380.000000   313319514   313202771   313133749   313119840   313166801  
  2375.000000   313279749   313445521   313628387   313793686   313923883  
  2370.000000   314006580   314029286   314004575   313974810   313959399  
  2365.000000   313929085   313870274   313826642   313826433   313876121  
  2360.000000   313981477   314093281   314161227   314137918   314054934  
  2355.000000   314038648   314077652   314074384   314074340   314222114  
  2350.000000   314408552   314371849   314140593   314013068   314179318  
  2345.000000   314400204   314404094   314291947   314198648   314201087  
  2340.000000   314330836   314540393   314680752   314630320   314435502  
  2335.000000   314266191   314204811   314183955   314143193   314117897  
  2330.000000   314127619   314092725   314042010   314047233   314174742  
  2325.000000   314366366   314567450   314742158   314813105   314729224  
  2320.000000   314521295   314297921   314119926   313978047   313885582  
  2315.000000   313870268   313945134   314045242   314130611   314195652  
  2310.000000   314262453   314306840   314325310   314321054   314300980  
  2305.000000   314240307   314127485   313971644   313791012   313600101  
  2300.000000   313435534   313331691   313302550   313319769   313370110  
  2295.000000   313447463   313548264   313637575   313692954   313708452  
  2290.000000   313682677   313601607   313466813   313307603   313153904  
  2285.000000   313020399   312917462   312862195   312856188   312884146  
  2280.000000   312932289   313002337   313085724   313156178   313191590  
  2275.000000   313189678   313150756   313062907   312926800   312765884  
  2270.000000   312605572   312454893   312323925   312235500   312203097  
  2265.000000   312215643   312259549   312331429   312422242   312503373  
  2260.000000   312549068   312556381   312525305   312448324   312324914  
  2255.000000   312176401   312025675   311883055   311761834   311684677  
  2250.000000   311663798   311686071   311735628   311808365   311895621  
  2245.000000   311971407   312013396   312018281   311986110   311908434  
  2240.000000   311786272   311641248   311495040   311355312   311232207  
  2235.000000   311148523   311117727   311129286   311167401   311226800  
  2230.000000   311297444   311354170   311376879   311364410   311316832  
  2225.000000   311224055   311086381   310926908   310769341   310620662  
  2220.000000   310488032   310391728   310345195   310338688   310356700  
  2215.000000   310394035   310441394   310474313   310472547   310435194  
  2210.000000   310364732   310254801   310107545   309944702   309787173  
  2205.000000   309640173   309510077   309416039   309369785   309360489  
  2200.000000   309372909   309403051   309442791   309468539   309461035  
  2195.000000   309420621   309350324   309242902   309099294   308941367  
  2190.000000   308791295   308654354   308534507   308447705   308404012  
  2185.000000   308392673   308398900   308418792   308444379   308452625  
  2180.000000   308425734   308367063   308283788   308171786   308031741  
  2175.000000   307882157   307741090   307611130   307495902   307412327  
  2170.000000   307371160   307361651   307369194   307391430   307422371  
  2165.000000   307439325   307423496   307378528   307313577   307225355  
  2160.000000   307113477   306996360   306894206   306810548   306745890  
  2155.000000   306713085   306721200   306757973   306805200   306858413  
  2150.000000   306915472   306959723   306973458   306957926   306922365  
  2145.000000   306864359   306781068   306688846   306612527   306562700  
  2140.000000   306536353   306533479   306558712   306610088   306676832  
  2135.000000   306746350   306806854   306847656   306862636   306850592  
  2130.000000   306811517   306748069   306670663   306594047   306529151  
  2125.000000   306483988   306467402   306481746   306516675   306561334  
  2120.000000   306615041   306673317   306716210   306727788   306715000  
  2115.000000   306688500   306639922   306561930   306474537   306403210  
  2110.000000   306346216   306294068   306263920   306276910   306316098  
  2105.000000   306349024   306377336   306420148   306460702   306459849  
  2100.000000   306418121   306367142   306309208   306219963   306108918  
  2095.000000   306022459   305973959   305932316   305892348   305894215  
  2090.000000   305951071   306018468   306063565   306104571   306150922  
  2085.000000   306165181   306121259   306048378   305979758   305904026  
  2080.000000   305808902   305725526   305687299   305681027   305680757  
  2075.000000   305701372   305761926   305838707   305896073   305929897  
  2070.000000   305949311   305937026   305872858   305774022   305676823  
  2065.000000   305593918   305520872   305467223   305446656   305453918  
  2060.000000   305479612   305529941   305606584   305687526   305751883  
  2055.000000   305803256   305842966   305851428   305819363   305764726  
  2050.000000   305704472   305637107   305566895   305519305   305515060  
  2045.000000   305543702   305588392   305658186   305769275   305908358  
  2040.000000   306043673   306159494   306251614   306307016   306316316  
  2035.000000   306294228   306263645   306229680   306195102   306183998  
  2030.000000   306218166   306292912   306390434   306508438   306647400  
  2025.000000   306788039   306911230   307008152   307072699   307085618  
  2020.000000   307036853   306953308   306882143   306845703   306836233  
  2015.000000   306850889   306897496   306973420   307066590   307174200  
  2010.000000   307298759   307427886   307536515   307615132   307664665  
  2005.000000   307672916   307628555   307538003   307431817   307325459  
  2000.000000   307229033   307170941   307159534   307176734   307202423  
  1995.000000   307234888   307281384   307352972   307444507   307522989  
  1990.000000   307553169   307526613   307464152   307387263   307293303  
  1985.000000   307177985   307067709   306997535   306976130   306985932  
  1980.000000   307029498   307121025   307230023   307316711   307378671  
  1975.000000   307428497   307439177   307377557   307257524   307110182  
  1970.000000   306930575   306718356   306536706   306456152   306466145  
  1965.000000   306515286   306589871   306697145   306813178   306901806  
  1960.000000   306969425   307029214   307043910   306970800   306833770  
  1955.000000   306691612   306551816   306399572   306258148   306166321  
  1950.000000   306133441   306124574   306127799   306165384   306226659  
  1945.000000   306268824   306297514   306365350   306451412   306467561  
  1940.000000   306400359   306297410   306182216   306046900   305908776  
  1935.000000   305817292   305789295   305810541   305867699   305968488  
  1930.000000   306119027   306253671   306325001   306336188   306290212  
  1925.000000   306167907   305962935   305763219   305641537   305572247  
  1920.000000   305506176   305476131   305541296   305634890   305683209  
  1915.000000   305743874   305857391   305973025   306010073   305984415  
  1910.000000   305970553   305945882   305860728   305739007   305635732  
  1905.000000   305548694   305421507   305305430   305291325   305346943  
  1900.000000   305395466   305439655   305522211   305627217   305682279  
  1895.000000   305695243   305710385   305685170   305544608   305331386  
  1890.000000   305167151   305052233   304905540   304766264   304718815  
  1885.000000   304757944   304809597   304869088   304986114   305115855  
  1880.000000   305182893   305193865   305189057   305155159   305034192  
  1875.000000   304828250   304610985   304405686   304169213   303919521  
  1870.000000   303782754   303814746   303877110   303937902   304105463  
  1865.000000   304330401   304478282   304523518   304534886   304518256  
  1860.000000   304409649   304226663   304068507   303954864   303826002  
  1855.000000   303694571   303644348   303660325   303673376   303690376  
  1850.000000   303722312   303747829   303738370   303740964   303806710  
  1845.000000   303903870   303892276   303707877   303515137   303370630  
  1840.000000   303217918   303071784   302995430   302993802   303011275  
  1835.000000   303053787   303129867   303182888   303179638   303166166  
  1830.000000   303156722   303067170   302901051   302725287   302559129  
  1825.000000   302436631   302316674   302178804   302084471   302062826  
  1820.000000   302085308   302095494   302125132   302219045   302281886  
  1815.000000   302223939   302070399   301911972   301764654   301557269  
  1810.000000   301344027   301194626   301045216   300860263   300716119  
  1805.000000   300640231   300541164   300411418   300375299   300499438  
  1800.000000   300629439   300590258   300456012   300312143   300140343  
  1795.000000   299936257   299750168   299634925   299509791   299272812  
  1790.000000   299109355   299099594   299111022   299086696   299110933  
  1785.000000   299187849   299179319   299069024   298916441   298768147  
  1780.000000   298641452   298483200   298293711   298046616   297794597  
  1775.000000   297618533   297499774   297418098   297361449   297247285  
  1770.000000   297173566   297217559   297328756   297399932   297359166  
  1765.000000   297235030   297062839   296866244   296610963   296268660  
  1760.000000   295945074   295705275   295533667   295396713   295320499  
  1755.000000   295279536   295189398   295010938   294876756   294833464  
  1750.000000   294673533   294330084   293996111   293796698   293576796  
  1745.000000   293257000   292979134   292839425   292771460   292674890  
  1740.000000   292522116   292333776   292188696   292111669   291999573  
  1735.000000   291960081   291969013   291507404   290904520   290548336  
  1730.000000   290352994   290162121   289926633   289680878   289394838  
  1725.000000   289071985   288756052   288479055   288298410   288169611  
  1720.000000   287957725   287613858   287293346   286940017   286323662  
  1715.000000   285718560   285380811   285186182   284879813   284446256  
  1710.000000   284033654   283695113   283336659   282883020   282418018  
  1705.000000   282017833   281698460   281515123   281391901   281237763  
  1700.000000   280699713   279650592   278945384   278559585   277983081  
  1695.000000   277091030   276344393   275930215   275500987   274916097  
  1690.000000   274273050   273677951   273249221   272972442   272627622  
  1685.000000   272021550   270918304   269486874   268598719   268004685  
  1680.000000   267449616   267033609   266737758   266323206   265656946  
  1675.000000   264857414   264073197   263444491   262894725   262319789  
  1670.000000   261686514   260851715   260020196   259522786   259236279  
  1665.000000   258865094   258257155   257519634   256822406   256211108  
  1660.000000   255746766   255429076   255196689   254980713   254805573  
  1655.000000   254626547   254545918   254156274   252907467   252426548  
  1650.000000   252491257   252424010   252187209   252025032   251932972  
  1645.000000   251891474   251968820   252135067   252378702   252646009  
  1640.000000   252904514   253179480   253510907   253968303   254590422  
  1635.000000   255081965   255365434   255735425   256170179   256660092  
  1630.000000   257239872   257868222   258499766   259164335   259873879  
  1625.000000   260576168   261326924   262213993   263105060   263866062  
  1620.000000   264557798   265273610   266138919   267111773   267885265  
  1615.000000   268469301   269080207   269682027   270269559   270953559  
  1610.000000   271718053   272427385   273089005   273816504   274544493  
  1605.000000   275123543   275611007   276120425   276613547   276994299  
  1600.000000   277301801   277618853   277904278   278100261   278271654  
  1595.000000   278530996   278859627   279148046   279396021   279683953  
  1590.000000   279990726   280212668   280350893   280489254   280617784  
  1585.000000   280628477   280560404   280552844   280559282   280462166  
  1580.000000   280337179   280329970   280402817   280478850   280489438  
  1575.000000   280416723   280394123   280394555   280346861   280289511  
  1570.000000   280226443   279969684   279662551   279535737   279425768  
  1565.000000   279188032   278997157   278995465   279093978   278844221  
  1560.000000   278532714   278800412   278489822   277897995   277656745  
  1555.000000   277623250   277526214   277322427   277031678   276725004  
  1550.000000   276443548   276219794   276047278   275882153   275602331  
  1545.000000   275225306   274895656   274708015   274592067   274466817  
  1540.000000   274173985   273654172   273357554   273297518   273171040  
  1535.000000   272878989   272492648   272045113   271629055   271377630  
  1530.000000   271224762   271019088   270709819   270360376   270045206  
  1525.000000   269785477   269536178   269193939   268729809   268150556  
  1520.000000   267578656   267150382   266664242   266086052   265620615  
  1515.000000   265386923   265243006   264988783   264596233   264100886  
  1510.000000   263577579   262974698   262378430   261865668   261139821  
  1505.000000   260448150   260041278   259718716   259273591   258725144  
  1500.000000   258121828   257502055   256797946   256041927   255314820  
  1495.000000   254735365   254321854   253887798   253214182   252202861  
  1490.000000   250931457   249630173   248482377   247506503   246665092  
  1485.000000   245836195   244958459   243990572   242876042   241694646  
  1480.000000   240593913   239598592   238533088   237279924   235914774  
  1475.000000   234568066   233109034   231320934   229480580   228104945  
  1470.000000   227263944   226671004   226132711   225565672   224913745  
  1465.000000   224202902   223650968   223395387   223341337   223334995  
  1460.000000   223321470   223262228   223106944   222917906   222879929  
  1455.000000   223156400   223531170   223869908   224224154   224589244  
  1450.000000   224856919   224986231   225024296   225024999   224974423  
  1445.000000   224867924   224748484   224578468   224312399   224017574  
  1440.000000   223823530   223669987   223339630   222761266   222158473  
  1435.000000   221788407   221634699   221538982   221435294   221300888  
  1430.000000   221080673   220835748   220685587   220625803   220478887  
  1425.000000   220169343   219925341   219919607   220034402   220045722  
  1420.000000   219920501   219754531   219632465   219723271   220067445  
  1415.000000   220495995   220825917   221035983   221248736   221513213  
  1410.000000   221759092   221979259   222213036   222451124   222635088  
  1405.000000   222791428   223062317   223444645   223782212   223973209  
  1400.000000   224075055   224173529   224243574   224242458   224165894  
  1395.000000   224017416   223762158   223449149   223177234   222905377  
  1390.000000   222511248   221914005   221157480   220409155   219830771  
  1385.000000   219454662   219213081   219014429   218794112   218527208  
  1380.000000   218230760   217950684   217690806   217401098   217039310  
  1375.000000   216637522   216282243   216060391   215995991   216030995  
  1370.000000   216075510   216105078   216206176   216418271   216646313  
  1365.000000   216763735   216761852   216762666   216870794   217077715  
  1360.000000   217336347   217612653   217866288   218072161   218261290  
  1355.000000   218480706   218732268   218987925   219220970   219430404  
  1350.000000   219598635   219697234   219753943   219796048   219807907  
  1345.000000   219771442   219717331   219664969   219577057   219443129  
  1340.000000   219385891   219563248   219980673   220533171   221159285  
  1335.000000   221842459   222548209   223245234   223949779   224687068  
  1330.000000   225434010   226158856   226873851   227596459   228290920  
  1325.000000   228921323   229515735   230094776   230620471   231062897  
  1320.000000   231462573   231864192   232246755   232570986   232836563  
  1315.000000   233047407   233187998   233274844   233366349   233486978  
  1310.000000   233601384   233697384   233821582   234009344   234229866  
  1305.000000   234448894   234686930   234957961   235229525   235475580  
  1300.000000   235715315   235957267   236173068   236356660   236551430  
  1295.000000   236781192   237012866   237225985   237450561   237705057  
  1290.000000   237961182   238203935   238462151   238741240   238988809  
  1285.000000   239166167   239290388   239376673   239406424   239379331  
  1280.000000   239339597   239312700   239272153   239202208   239130863  
  1275.000000   239068959   238973589   238813877   238614634   238397595  
  1270.000000   238135621   237807555   237443624   237072388   236680923  
  1265.000000   236267336   235871873   235518924   235183736   234853147  
  1260.000000   234566301   234345545   234143599   233911268   233655980  
  1255.000000   233391561   233088234   232722839   232326391   231932659  
  1250.000000   231527765   231101007   230695770   230355711   230071430  
  1245.000000   229833416   229681638   229648056   229698728   229788404  
  1240.000000   229921340   230104887   230297090   230457254   230599826  
  1235.000000   230747404   230881410   230988659   231103742   231254063  
  1230.000000   231414221   231560550   231715556   231892218   232047113  
  1225.000000   232134125   232151955   232095218   231916066   231581123  
  1220.000000   231115608   230547842   229862241   229052935   228173114  
  1215.000000   227283597   226397156   225521524   224708527   224003246  
  1210.000000   223384762   222812718   222293490   221843878   221432448  
  1205.000000   221018235   220611731   220238620   219879744   219506638  
  1200.000000   219139061   218804214   218473833   218102280   217687620  
  1195.000000   217234505   216693334   215999819   215143162   214134688  
  1190.000000   212944424   211533319   209921604   208162638   206271553  
  1185.000000   204241574   202109164   199933844   197725474   195461295  
  1180.000000   193165463   190892967   188639327   186352631   184035692  
  1175.000000   181750020   179516425   177306867   175141902   173093406  
  1170.000000   171181094   169371583   167690169   166220091   164976125  
  1165.000000   163895430   162966283   162242395   161717932   161318200  
  1160.000000   161028575   160902133   160929661   161037723   161224770  
  1155.000000   161562806   162056320   162636612   163301729   164124228  
  1150.000000   165114766   166212230   167409002   168749658   170205999  
  1145.000000   171685472   173159097   174651979   176116067   177441044  
  1140.000000   178582268   179556886   180328311   180817140   181019619  
  1135.000000   181004204   180798786   180389551   179824091   179204481  
  1130.000000   178575877   177924645   177282896   176723105   176247066  
  1125.000000   175791023   175342980   174944271   174577545   174170671  
  1120.000000   173713811   173258412   172800619   172282144   171706752  
  1115.000000   171137785   170578907   169976703   169343154   168753698  
  1110.000000   168219120   167688247   167177758   166768406   166467016  
  1105.000000   166198115   165939368   165732311   165552274   165306572  
  1100.000000   164965716   164571415   164107403   163493068   162722915  
  1095.000000   161876702   160982681   160001709   158960075   157959098  
  1090.000000   157032414   156130188   155263311   154520961   153924540  
  1085.000000   153410264   152979979   152723458   152670540   152771098  
  1080.000000   153042478   153585053   154431129   155528441   156883759  
  1075.000000   158557811   160492452   162485706   164340414   165898854  
  1070.000000   166957623   167321965   166969163   166045617   164703232  
  1065.000000   163046657   161224525   159420128   157714414   156078159  
  1060.000000   154520947   153118950   151878675   150718725   149617655  
  1055.000000   148643287   147809697   147047151   146345224   145774083  
  1050.000000   145325196   144894787   144459024   144094077   143804333  
  1045.000000   143502833   143173687   142891874   142668401   142429059  
  1040.000000   142163019   141939032   141753335   141513384   141194238  
  1035.000000   140861483   140520057   140093389   139576440   139058577  
  1030.000000   138568207   138042214   137473538   136939661   136459025  
  1025.000000   135969002   135472359   135054893   134731571   134426641  
  1020.000000   134132239   133933193   133847203   133794120   133751553  
  1015.000000   133787913   133913161   134048798   134174130   134352083  
  1010.000000   134581791   134773249   134895587   135006104   135108285  
  1005.000000   135127383   135053681   134966588   134889238   134760226  
  1000.000000   134575908   134418296   134313126   134201637   134082378  
   995.000000   134039734   134101215   134206582   134349428   134610844  
   990.000000   135023184   135538451   136160254   136969676   137992863  
   985.000000   139178464   140529661   142122476   143971603   146011956  
   980.000000   148230243   150681517   153360604   156185730   159119806  
   975.000000   162185415   165357365   168561027   171777480   175038025  
   970.000000   178320661   181559270   184744685   187914674   191058085  
   965.000000   194125156   197115402   200064456   202963404   205775105  
   960.000000   208507535   211192497   213817209   216349286   218799308  
   955.000000   221188508   223484287   225630571   227607822   229403988  
   950.000000   230963388   232221382   233154716   233750050   233966361  
   945.000000   233784582   233265428   232513153   231607328   230606927  
   940.000000   229587349   228618139   227717972   226876659   226105213  
   935.000000   225420540   224804861   224235173   223736576   223354514  
   930.000000   223091176   222921031   222849366   222900085   223066071  
   925.000000   223330308   223718446   224274019   224999952   225877034  
   920.000000   226913359   228116585   229443260   230834376   232275814  
   915.000000   233771507   235289435   236787481   238260107   239710247  
   910.000000   241110599   242438639   243711065   244939245   246090268  
   905.000000   247132691   248079477   248950198   249736899   250444175  
   900.000000   251117317   251795085   252475821   253161824   253892009  
   895.000000   254697439   255569011   256498099   257501649   258577378  
   890.000000   259682942   260787097   261891263   262977497   263991707  
   885.000000   264902715   265721057   266438052   267005697   267396979  
   880.000000   267625467   267686646   267541388   267175108   266611554  
   875.000000   265850966   264855353   263614431   262174485   260590059  
   870.000000   258899621   257161993   255463845   253865786   252380431  
   865.000000   251028264   249876946   248995458   248403053   248091730  
   860.000000   248054481   248247227   248564604   248907002   249243935  
   855.000000   249576530   249882923   250146188   250395479   250671305  
   850.000000   250981215   251327652   251741637   252245898   252819138  
   845.000000   253437523   254115904   254868900   255668643   256481202  
   840.000000   257309708   258165546   259034145   259903316   260788919  
   835.000000   261701755   262624493   263545981   264477434   265410103  
   830.000000   266300387   267120865   267879964   268569550   269147336  
   825.000000   269595244   269936657   270174216   270275503   270241847  
   820.000000   270129451   269986783   269825875   269662960   269529445  
   815.000000   269424477   269305391   269143649   268946444   268711426  
   810.000000   268410313   268034091   267605666   267130521   266581782  
   805.000000   265952660   265280315   264596402   263895762   263174528  
   800.000000   262457174   261762002   261077796   260398672   259744021  
   795.000000   259118413   258488950   257829339   257150829   256464491  
   790.000000   255751959   255002976   254243900   253496691   252743212  
   785.000000   251961495   251162195   250350785   249486988   248523026  
   780.000000   247454440   246296556   245041568   243681997   242252774  
   775.000000   240807553   239372490   237963602   236628647   235426012  
   770.000000   234378970   233494327   232804083   232336974   232068248  
   765.000000   231953147   231991514   232203619   232563327   233014838  
   760.000000   233537243   234134344   234782877   235452490   236157331  
   755.000000   236928251   237752119   238594485   239456213   240347793  
   750.000000   241233489   242059854   242815218   243504827   244093753  
   745.000000   244534808   244831426   245015002   245084037   245026219  
   740.000000   244875584   244682524   244445695   244135571   243765997  
   735.000000   243376224   242957195   242466655   241905139   241305437  
   730.000000   240653145   239899489   239041206   238111515   237123179  
   725.000000   236081094   235026611   234004595   232999938   231974487  
   720.000000   230960354   230040750   229240454   228518382   227853829  
   715.000000   227259613   226726352   226233362   225805321   225491548  
   710.000000   225294121   225180886   225163983   225285667   225552683  
   705.000000   225942041   226438440   227026742   227660820   228283629  
   700.000000   228884057   229468780   230002494   230437516   230765809  
   695.000000   231013618   231187098   231271962   231293279   231289069  
   690.000000   231254013   231174418   231086411   231044444   231030335  
   685.000000   230975900   230879202   230793532   230715247   230578888  
   680.000000   230361872   230106697   229834520   229545852   229257206  
   675.000000   228989754   228741615   228463145   228131384   227666526  
   670.000000   226987317   225948063   225014610   225304343   226237832  
   665.000000   226796363   226983565   226965741   226832031   226582020  
   660.000000   226266500   225979887   225735407   225510064   225315620  
   655.000000   225184651   225101963   225019744   224932077   224855693  
   650.000000   224757386   224597542   224409422   224237409   224057902  
   645.000000   223818891   223536440   223286108   223084430   222884207  
   640.000000   222681301   222510423   222357010   222176542   221978474  
   635.000000   221805195   221626288   221349866   220950405   220483451  
   630.000000   219973295   219386176   218721491   218026434   217326229  
   625.000000   216604342   215878574   215212234   214610424   214014734  
   620.000000   213417500   212872802   212377189   211859411   211312388  
   615.000000   210813496   210385098   209967324   209561521   209261707  
   610.000000   209099548   208992961   208902327   208886529   208970595  
   605.000000   209081705   209173170   209282000   209407746   209476209  
   600.000000   209475373   209476177   209481411   209411118   209260177  
   595.000000   209114888   208982815   208765183   208436145   208082653  
   590.000000   207709418   207186500   206444442   205547927   204549087  
   585.000000   203424018   202216409   201066438   200025246   199019898  
   580.000000   198075683   197355336   196906852   196612039   196437952  
   575.000000   196509815   196856366   197343192   197920471   198686123  
   570.000000   199652917   200675852   201666868   202664140   203661635  
   565.000000   204579157   205426892   206295929   207174291   207955614  
   560.000000   208634502   209311872   209998297   210588775   211049559  
   555.000000   211460358   211843193   212119091   212267582   212372217  
   550.000000   212470546   212502192   212443611   212351575   212233619  
   545.000000   212015227   211673601   211263682   210784624   210160064  
   540.000000   209390952   208587758   207812761   207023140   206229653  
   535.000000   205541238   205001875   204534061   204115079   203842189  
   530.000000   203736939   203676852   203611754   203656855   203875249  
   525.000000   204163139   204455993   204820815   205269991   205709847  
   520.000000   206128654   206644988   207286877   207931981   208552291  
   515.000000   209258391   210047522   210758050   211319929   211838078  
   510.000000   212383115   212879540   213287833   213697067   214133625  
   505.000000   214496046   214752522   215015580   215352487   215679132  
   500.000000   215955982   216258937   216587927   216826261   216933211  
   495.000000   217012689   217123937   217197062   217227124   217318671  
   490.000000   217473746   217542751   217450860   217295228   217171896  
   485.000000   217090758   217111414   217344551   217736693   218092190  
   480.000000   218346418   218588127   218839583   219013298   219107418  
   475.000000   219237039   219469104   219798887   220286616   220939052  
   470.000000   221574824   222052151   222457169   222914567   223339277  
   465.000000   223588865   223739131   223987501   224327128   224588717  
   460.000000   224768075   225018531   225323202   225442035   225307584  
   455.000000   225102475   224919252   224715254   224534827   224447688  
   450.000000   224328668   223986794   223485127   223079774   222809942  
   445.000000   222446243   221896638   221349622   220932637   220571751  
   440.000000   220271547   220149029   220142057   220065431   220026096  
   435.000000   220359598   221035956   221667673   222105648   222533803  
   430.000000   223006381   223336075   223518249   223770154   224082264  
   425.000000   224193738   224180856   224503482   225251757   225979408  
   420.000000   226448753   226988293   227582389   227675381   227408819  
   415.000000   227218069   227090391   226680328   225955348   225375306  
   410.000000   225172064   225048664   224922756   225211038   225987090  
   405.000000   226648820   226875298   226980128   227104252   226776862  
   400.000000   225801136  
##END= 
