##TITLE= flavia
##JCAMP-DX=4.24
##DATA TYPE=INFRARED SPECTRUM
##ORIGIN= Exported PE Spectrum Data File
##XUNITS=1/CM
##YUNITS=ABSORBANCE
##RESOLUTION=8
##FIRSTX=3030
##LASTX=600
##DELTAX=-2
##MAXY=0.067445464
##MINY=0
##XFACTOR=1
##YFACTOR=6.2813484e-011
##NPOINTS=1216
##FIRSTY=0
##XYDATA=(X++(Y..Y))
3030+0+1521136+4152507+6994533+10335691+14997736+20771912+27580402+34891820
3012+42303819+48939610+53873044+56576529+56824225+55092481+52165109+48628529
2996+45334876+42823124+41524089+41394114+42734960+43983313+46842924+50733030
2980+55234263+60295359+66404050+74522520+84827320+97270974+111458733+126768109
2964+142923888+159694578+175994622+190956695+203648935+213961326+221597777
2950+227547043+233456469+241354791+253358148+270779809+294217590+323024301
2936+355467283+389910577+424870082+458930015+490372781+516896433+536092564
2922+545979841+545480297+535502991+517976120+495275735+469648927+443549529
2908+418793824+396387633+376321465+358519378+342844759+328663761+315549343
2894+303482527+291998315+280635594+269263384+258910308+250284228+243732505
2880+239351899+237163286+237064154+238502279+240764077+243452886+246925499
2866+252193415+261513241+276659404+297967820+323394496+348851567+368897926
2852+378623888+375078327+358399756+331507095+299103137+266057712+236168334
2838+211220949+191283833+175797114+163295695+152682587+143304996+135086978
2824+127901380+121769048+116411060+111656574+107351874+103453317+100086122
2810+96903047+93845228+91068288+88513357+86155838+83618017+80985312+78644873
2794+76539735+74781930+73177841+71795806+70567458+69337250+68441059+67668227
2778+67007367+66304725+65298453+64111887+62830437+61907647+61539053+61568999
2762+61365516+60759690+59948872+59538522+59610224+59807179+59381617+58460755
2746+57555071+57144725+57368250+57717006+57665345+57435293+57024943+56794861
2730+56578089+56114600+55415783+54882074+54735497+54712304+54673932+54417306
2714+54063865+53752202+53563902+53415452+53090505+52710494+52302042+52073887
2698+51953905+52082513+52074502+51941239+51768118+51634855+51474988+51273400
2682+50990208+50667158+50643939+50429066+50187626+49767787+49773036+50245176
2666+51047539+51711365+51784961+51543492+51123653+50952433+50874203+50716238
2650+50448225+49999923+49692055+49697330+49964479+50079828+49728314+48775185
2634+47493705+46403932+45807598+45389657+45026756+44333600+43505728+42472893
2618+41508377+41050555+40892616+40791616+40181994+39342738+38816606+38878804
2602+39324375+39331533+38957245+38486150+38056825+37682534+38222985+39336592
2586+40533693+40445974+39879991+38959125+37861745+36680880+35711871+35450742
2570+35941164+36923113+37605216+37890661+37944583+38093384+38323804+38419463
2554+38239955+37912397+37637998+37283871+37051224+36776806+36654233+36450034
2538+36122492+35887739+36171090+36714448+36931375+36954727+36898367+36868580
2522+36675576+36974113+37270764+37174549+36258476+35467656+34851439+34592011
2506+34862081+34955649+35267472+35564108+36088487+36965844+37695185+37838085
2490+37149748+36256434+36046349+36773796+37611299+37807353+36834326+35574746
2474+34901576+35152664+36435389+38219123+39228561+38972128+37641541+36608896
2458+36910443+38246289+39637191+40291716+40198511+39628955+38964488+38326610
2442+37990468+37815660+37735725+37534347+37646093+37919173+38112526+38061073
2426+38036179+37779761+37741596+37553485+37215464+36634502+36119983+35633912
2410+35024501+34306895+33860694+33850983+34124059+34448054+34690439+34877790
2394+34858322+34838855+34819387+34799920+34780448+34760981+34741513+34722046
2378+34702578+34683111+34663643+34644175+34624708+34605240+34585773+34566305
2362+34546837+34527370+34507902+34488435+34468967+34449500+34430032+34410564
2346+34391093+34371626+34352158+34332690+34313223+34293755+34274288+34254820
2330+34235352+34215885+34196417+34176950+34157482+34138015+34118547+33491729
2314+34248426+35481481+35613792+35436760+36519883+38417164+40777527+42676717
2298+43896488+45021363+46282886+47570975+48314376+49562610+50960777+52235581
2282+53443964+53726203+53112667+51776061+50536226+50370581+50721142+51344994
2266+51150878+49871207+48359998+48181049+48450007+47604936+45729346+42576514
2250+40184715+39681252+41075609+43557432+46120866+48141517+50150781+51560335
2234+51965933+50821008+50791988+51808691+52880428+53570704+53486662+53537369
2218+54256109+55747251+57485129+58856723+60076493+60795233+60847839+60314011
2202+59808655+58635244+57015861+55273116+54849366+56721987+60742950+63501861
2186+61825529+57702902+52551658+49846717+49464716+51295584+54130408+56640703
2170+60063835+63392091+66069394+70122625+73169998+70783892+62821963+52206850
2154+43969732+40251350+39979427+38350551+36059334+35584342+37098258+40130452
2138+41606430+40655084+38377151+36357322+36544674+38859492+41918241+43637137
2122+45234576+47754356+50913705+54004736+56404957+57353319+57732348+58217658
2106+58704867+58294398+57083045+55289062+54295960+53316128+52499527+52090960
2090+53229120+55084660+56860495+58201727+59013446+58902834+58792226+58505116
2074+58271146+57847396+57125687+57354787+58764322+59725988+59710272+57603143
2058+55105062+54979271+58125335+63241332+69040565+71837432+72556176+73178123
2042+74563005+74084218+70817497+64402299+57070450+50736855+45492614+40887946
2026+38057748+34918200+32131634+30305388+28710676+28452035+30769712+35372393
2010+38760445+39347316+35920266+30872482+28246314+30889277+37020436+44104322
1994+48337665+48359723+47582784+47781341+49456409+52486517+54309619+51934719
1978+45050576+36308446+31210164+30085933+31337771+32967295+33097529+33430832
1962+33832445+33651440+33147800+32454362+32220217+31447089+29038026+27333046
1946+27423429+28553258+30438424+31338616+31348713+31153855+31258855+32009120
1930+32586683+32378537+31509939+30722961+29732915+29310320+28265236+27626289
1914+28000782+29696150+32203804+34375544+35761574+35919717+34916388+33343706
1898+32786348+33713112+35615360+37502422+37943337+36763510+34853003+33039294
1882+32007497+32165640+32822908+33967918+36462289+37797071+36873447+34084256
1866+31352004+29887499+30127246+30554879+30375191+30613041+32378641+35197541
1850+37545779+38258084+36117936+31816179+27381571+25865826+27118866+29533363
1834+31976342+33811999+34106637+32347809+29414235+27127808+26086372+26056463
1818+26514313+27497846+27967083+27762590+27138661+27055630+27986024+29874837
1802+31222752+31139722+31233171+32541247+32727694+30198359+26871922+25101719
1786+25619825+28005395+29066280+28802480+30324521+33349659+34752151+33448343
1770+31060871+31825695+39054524+51546038+67398594+88548000+116525804+152119599
1754+196283992+246559396+297609100+344699946+380195054+398989231+402213673
1740+392138066+370127068+336431073+291917509+242752305+202330432+177810459
1726+165926250+160435829+157144992+154104654+148039191+136471919+126999852
1712+127204803+133294938+138718935+142116035+143691234+142019246+136965326
1698+129882625+125303163+128280842+138817578+153195535+169023434+182025464
1684+188295894+192930393+201630044+214622571+230670604+245650173+257496425
1670+267887042+278818511+291583343+306629306+322394577+338886716+357193181
1656+374423576+384531417+386292602+384334042+381931390+380836342+382941035
1642+387406599+392033537+394246347+389034937+375721632+364552934+360389067
1628+356384646+347785580+335495236+322109843+309090732+295350446+278799474
1614+261633605+248316520+238516113+228742290+217628615+205968335+195152574
1600+185443278+176876475+169102965+161207993+152944843+145120092+138834480
1586+133957043+130305619+128603266+128290124+126363827+121074568+115732178
1572+113599017+113132144+114164534+119201373+127540437+136353958+141969635
1558+138492797+131503090+133784281+143909202+155034280+165813952+176151430
1544+182725497+179762985+167975565+157057351+152493041+152491143+153303415
1530+152756840+151733895+150809652+147672539+140045162+129728560+120721453
1516+115458772+114060071+115268982+114134079+101576141+78910362+62708590
1502+58709826+58920485+57745725+52323622+44443834+38420122+33064443+26000720
1486+20664021+20372080+24921472+32539682+41651459+52175247+67272774+89415078
1470+118015667+149694558+178340695+201215561+219427431+232437379+236705880
1456+232069808+225541571+221806968+219694980+217368567+214005910+211267668
1442+211374243+212262739+209666804+203347358+196961458+192651813+190839682
1428+190644517+191104088+192117855+193883134+194059958+190911755+187437155
1414+185979919+185346355+184086522+181564603+178219056+175074649+172666629
1400+170214930+166461334+160582155+154663150+152201962+153464345+156370218
1386+161079060+168065267+176922749+186949280+195580935+200358069+201254170
1372+200123360+199664397+201146898+202545925+201686505+198712932+195052315
1358+192408965+191435675+190974828+190174226+189157315+188368115+188537348
1344+189621305+190363683+189976807+188088793+185413179+183168343+181194927
1330+178492714+174963077+171133553+167233825+163222110+159324294+155371411
1316+151746883+148465832+145384083+142289004+139408425+136740373+134129286
1302+131206925+127958167+124269075+120395931+116608160+113306255+110698934
1288+108957052+107854710+107177503+106430055+105384677+104098238+102754901
1274+101324234+99952429+99020891+98641644+98930411+99659496+100673263+101588314
1258+102476824+103875821+105802437+108414147+111938743+116180681+120711127
1244+124731026+127485103+128354606+127081488+123735904+118807559+112552609
1230+105147604+96539346+86870230+76787350+67097358+58665594+52110813+47512669
1214+44556176+42857912+41827713+41034716+40258830+38731370+36072833+32550758
1198+28366366+24396401+20849682+18037393+16314488+15771263+17048055+20588988
1182+26652107+35825767+48239026+64038005+83463744+106990723+135142683+168306810
1166+205744850+246008744+286597181+324923435+359342028+388877506+412516427
1152+429080268+437914220+438769697+432316631+419851241+402466677+381451536
1138+358658157+336272812+316812022+302680338+294870384+293021453+295359134
1124+299488367+303461977+306177326+308080405+310044214+312869637+317913594
1110+325760674+335961123+346837140+356284091+362557871+364927815+364752770
1096+364832034+368166076+377358718+393643549+416502462+444680991+476537544
1082+509170309+538582398+559385991+565970985+555185205+528884607+493924243
1068+461000250+438939434+432355418+440919938+460611373+487516459+519278090
1054+553317088+587228990+618696428+646051329+668896928+688053205+703850264
1040+717089108+728752754+740710504+754898263+773536373+796296629+822414085
1026+850763449+879972470+908418623+934386151+957055311+975530208+989461819
1012+999151663+1006004251+1011638433+1017527042+1025372195+1035599125
1000+1047380377+1059002329+1068234796+1073741823+1073661640+1066887930
988+1052983956+1031885309+1003271376+967779590+926579133+881123800+832912760
974+783498555+734672618+687873623+644088381+603296016+565697639+530405184
960+497150939+465786962+436840820+410422587+387038983+367071473+351011594
946+339225627+332531597+330458722+331874058+335274494+338711019+341405492
932+342748711+342545198+341322551+338534195+334001733+327404491+318066725
918+305318559+289159992+271268708+253719033+237345997+222920149+209803804
904+197141040+184764848+172360174+160211781+148139242+136229917+124130808
890+111561038+98640161+85504838+73048937+62018303+53490906+48673770+48660096
874+53246701+62065471+73368499+85992409+98938958+110999221+120522085+126114544
858+127736744+126627951+124095802+120449686+115338386+109798176+104409793
844+99674256+94925442+89246691+82520330+74958932+67224832+59319923+51098076
828+42498625+33952253+25354637+17965938+13162085+10848184+9142656+7349769
812+4824378+2458345+693985+0+378108+1004892+1457015+2658841+4830457+7051358
792+8553041+9322102+10150055+9905913+11081347+13589057+17343642+23284525
776+32000035+43533824+56312530+67314927+75149842+79771739+81825865+82746987
760+82005618+78952685+72280590+61769194+50181721+40864056+33897802+29313324
744+26091426+23573683+23141656+25275495+29054750+33610218+39534022+47196239
728+56708839+66054427+72999260+78034884+82518232+87639259+94225402+100661557
712+106165945+110106514+112722406+114990987+117405700+116719368+111907147
698+103724380+94884972+86599722+79037553+70524564+61831285+57203153+55890474
682+55839971+55316789+56086143+58664015+61308429+61525401+57052832+48739178
666+43279741+44066180+49306703+53541499+53758470+49519457+43748772+39524941
650+35439533+29993499+21296363+12322264+5917707+3333481+7403165+14786340
634+18360690+15239378+8132743+1244240+0+1493245+4487792+8081935+9782163
616+11499351+14190245+14157636+13252143+10253226+6278942+3936674+746194+0
##END=
