##TITLE= E3
##JCAMP-DX= 4.24
##DATA TYPE= INFRARED SPECTRUM
##ORIGIN= Exported PE Spectrum Data File
##OWNER= Administrator
##DATE= 16/10/05
##TIME= 02:55:03.00
##SPECTROMETER/DATA SYSTEM= PERKIN-ELMER Spectrum Two IR
##INSTRUMENT PARAMETERS=
  APODIZATION=Strong
  DETECTOR=MIR TGS
##RESOLUTION= 4.000000
##DELTAX= -1.00
##XUNITS= 1/CM
##YUNITS= %T
##XFACTOR= 1.00
##YFACTOR= 0.00000023841857910156
##FIRSTX= 4000.00
##LASTX= 400.00
##NPOINTS= 3601
##FIRSTY= 97.714265
##MAXY= 98.359907
##MINY= 60.270021
##XYDATA= (X++(Y..Y))
  4000.000000   409843333   409854753   409860089   409859983   409857759  
  3995.000000   409856405   409856389   409856537   409856306   409852951  
  3990.000000   409856441   409862654   409869701   409875365   409878413  
  3985.000000   409879096   409879100   409880686   409885069   409891371  
  3980.000000   409897561   409902504   409906819   409911857   409918312  
  3975.000000   409925876   409933750   409940997   409946830   409951033  
  3970.000000   409954101   409956706   409959043   409960932   409962280  
  3965.000000   409963168   409963544   409963218   409962440   409962257  
  3960.000000   409964203   409969487   409978431   409990282   410003419  
  3955.000000   410015789   410025417   410031168   410033254   410032991  
  3950.000000   410032016   410031688   410032793   410035239   410038151  
  3945.000000   410041057   410044789   410050321   410056952   410062275  
  3940.000000   410064671   410065142   410066040   410068333   410070947  
  3935.000000   410073251   410076856   410084094   410094985   410106859  
  3930.000000   410117241   410125599   410132266   410137049   410139300  
  3925.000000   410139011   410137587   410137755   410142137   410151105  
  3920.000000   410161531   410168565   410170017   410168627   410169250  
  3915.000000   410174243   410182875   410193065   410203110   410212101  
  3910.000000   410220021   410227154   410233256   410238130   410242334  
  3905.000000   410246712   410249903   410248157   410239988   410230592  
  3900.000000   410228849   410238777   410255355   410269995   410278523  
  3895.000000   410282560   410286901   410295828   410310238   410326373  
  3890.000000   410338046   410341403   410338094   410334028   410333009  
  3885.000000   410332908   410330205   410326470   410327895   410338269  
  3880.000000   410354105   410367847   410374439   410375190   410376649  
  3875.000000   410384644   410397220   410405784   410405313   410401006  
  3870.000000   410401815   410408544   410414805   410418197   410423311  
  3865.000000   410433215   410444285   410451844   410456491   410460977  
  3860.000000   410465911   410470427   410473484   410474169   410472588  
  3855.000000   410472745   410478446   410484453   410486501   410487907  
  3850.000000   410493111   410502446   410512926   410521301   410527089  
  3845.000000   410532040   410538513   410547337   410556675   410563254  
  3840.000000   410566008   410566374   410565328   410562887   410560302  
  3835.000000   410560787   410566844   410577515   410588683   410595648  
  3830.000000   410595777   410590281   410584465   410584589   410592086  
  3825.000000   410601458   410606849   410609240   410614739   410625017  
  3820.000000   410634567   410638802   410639357   410642974   410652670  
  3815.000000   410662487   410665084   410661173   410657356   410657872  
  3810.000000   410662081   410668566   410678748   410692741   410705066  
  3805.000000   410709100   410705515   410702646   410708466   410720156  
  3800.000000   410727436   410725559   410718866   410713925   410713301  
  3795.000000   410715473   410718684   410723375   410730361   410738552  
  3790.000000   410745736   410750779   410753993   410755973   410756976  
  3785.000000   410757467   410758509   410760996   410765670   410773391  
  3780.000000   410784028   410794490   410800171   410798735   410792307  
  3775.000000   410784864   410777715   410769265   410759846   410754002  
  3770.000000   410755912   410764717   410776834   410790179   410802909  
  3765.000000   410811148   410811425   410804928   410798151   410797300  
  3760.000000   410801982   410806170   410806190   410803338   410799717  
  3755.000000   410796831   410797513   410805100   410818000   410828090  
  3750.000000   410829562   410823993   410814379   410804321   410802326  
  3745.000000   410817114   410841278   410855081   410851111   410838272  
  3740.000000   410827171   410821762   410820998   410823725   410826695  
  3735.000000   410824607   410816937   410809828   410808787   410811662  
  3730.000000   410812172   410808697   410806943   410813031   410824382  
  3725.000000   410831933   410830726   410823327   410814607   410807267  
  3720.000000   410802684   410801066   410799681   410793142   410777324  
  3715.000000   410753351   410727022   410703618   410683714   410664336  
  3710.000000   410643562   410622018   410601475   410582506   410561562  
  3705.000000   410531610   410486749   410427364   410360719   410295984  
  3700.000000   410237461   410184584   410137443   410099185   410073025  
  3695.000000   410059058   410055618   410060835   410072889   410089423  
  3690.000000   410108321   410128393   410148050   410164251   410173938  
  3685.000000   410177266   410175927   410169552   410154979   410130513  
  3680.000000   410097496   410056943   410008410   409955918   409910535  
  3675.000000   409877535   409847160   409805311   409750203   409694222  
  3670.000000   409650379   409617773   409586523   409550372   409508321  
  3665.000000   409460227   409405337   409343796   409277736   409210322  
  3660.000000   409143150   409075561   409006410   408937118   408871289  
  3655.000000   408809496   408746704   408676593   408596052   408504111  
  3650.000000   408400830   408293232   408197663   408124938   408069442  
  3645.000000   408017521   407960629   407898736   407835104   407770926  
  3640.000000   407705232   407637953   407569727   407500694   407431848  
  3635.000000   407366188   407304636   407240799   407162829   407061191  
  3630.000000   406937969   406811199   406702344   406613966   406531969  
  3625.000000   406443700   406344234   406234711   406121462   406016108  
  3620.000000   405929247   405858467   405787852   405704515   405608891  
  3615.000000   405509065   405410165   405310707   405206577   405093442  
  3610.000000   404966939   404827415   404685022   404552334   404429606  
  3605.000000   404304637   404166016   404013473   403856808   403707245  
  3600.000000   403568754   403435798   403298297   403149613   402991092  
  3595.000000   402829962   402673186   402523723   402381052   402240236  
  3590.000000   402089962   401916146   401714699   401501476   401299074  
  3585.000000   401114936   400940209   400762351   400574249   400377714  
  3580.000000   400180846   399990102   399804899   399620302   399433090  
  3575.000000   399242699   399049132   398853054   398656523   398458531  
  3570.000000   398249545   398014763   397748192   397466096   397197519  
  3565.000000   396958458   396743749   396538564   396329827   396111592  
  3560.000000   395885047   395653263   395417089   395176729   394933939  
  3555.000000   394689611   394442060   394191887   393946972   393716407  
  3550.000000   393499877   393287715   393069730   392841340   392603680  
  3545.000000   392361561   392120864   391884870   391652892   391423219  
  3540.000000   391195416   390967968   390736188   390496848   390254275  
  3535.000000   390017432   389790631   389570697   389352488   389133654  
  3530.000000   388914692   388697053   388481104   388263904   388040576  
  3525.000000   387810417   387579869   387355925   387138293   386921804  
  3520.000000   386704530   386488788   386275211   386060940   385844333  
  3515.000000   385627193   385410764   385192530   384968851   384739558  
  3510.000000   384509264   384284617   384069403   383861092   383652458  
  3505.000000   383437136   383213750   382985810   382759748   382543090  
  3500.000000   382340615   382149120   381957653   381755583   381540140  
  3495.000000   381314783   381083548   380850470   380621417   380401191  
  3490.000000   380189135   379980696   379772240   379561883   379348109  
  3485.000000   379131666   378917298   378709096   378504136   378294446  
  3480.000000   378075542   377849989   377622909   377397203   377173132  
  3475.000000   376950861   376734418   376533717   376358618   376206519  
  3470.000000   376057296   375884291   375671811   375423184   375156360  
  3465.000000   374895399   374661130   374459578   374276059   374084958  
  3460.000000   373869870   373634856   373397485   373173615   372967397  
  3455.000000   372771992   372578503   372384999   372196899   372018483  
  3450.000000   371846184   371671681   371490324   371305207   371123271  
  3445.000000   370948540   370779094   370610371   370442621   370284599  
  3440.000000   370146740   370029247   369918576   369796921   369653622  
  3435.000000   369488578   369309214   369125796   368945465   368767665  
  3430.000000   368587014   368401560   368215879   368035787   367864373  
  3425.000000   367703780   367555586   367416412   367277404   367131627  
  3420.000000   366980148   366829125   366684024   366548075   366421159  
  3415.000000   366297340   366167827   366029706   365888130   365747523  
  3410.000000   365605117   365456959   365306466   365162965   365034297  
  3405.000000   364923494   364828510   364740392   364644498   364528867  
  3400.000000   364392155   364242522   364091101   363947948   363820165  
  3395.000000   363709021   363608937   363510984   363407273   363292843  
  3390.000000   363167163   363035482   362905655   362781800   362663470  
  3385.000000   362551518   362449771   362358550   362271480   362182287  
  3380.000000   362090848   361999164   361905629   361808172   361710602  
  3375.000000   361621013   361544605   361480433   361423320   361366274  
  3370.000000   361302835   361230203   361149573   361062749   360971279  
  3365.000000   360880102   360797228   360726081   360661057   360594237  
  3360.000000   360524230   360455294   360390278   360328666   360270491  
  3355.000000   360217999   360172729   360132552   360091392   360041460  
  3350.000000   359978046   359904184   359829635   359763998   359711173  
  3345.000000   359669564   359634828   359602051   359568380   359534802  
  3340.000000   359502543   359467259   359420783   359360614   359294471  
  3335.000000   359233327   359182332   359139913   359102312   359066698  
  3330.000000   359032678   359002753   358978962   358957949   358932534  
  3325.000000   358899661   358863574   358829457   358797838   358767388  
  3320.000000   358739042   358714038   358690632   358666031   358640235  
  3315.000000   358615766   358595028   358579716   358570552   358565944  
  3310.000000   358562436   358557483   358550158   358538915   358521815  
  3305.000000   358499762   358476225   358453009   358429852   358409452  
  3300.000000   358398691   358401811   358415424   358432090   358446313  
  3295.000000   358455583   358458621   358455483   358447555   358436213  
  3290.000000   358423783   358416086   358419911   358435620   358455361  
  3285.000000   358470833   358480369   358487754   358497430   358512615  
  3280.000000   358534661   358561294   358588019   358613238   358640041  
  3275.000000   358671604   358707410   358744870   358781155   358812181  
  3270.000000   358833837   358847021   358858693   358876167   358902519  
  3265.000000   358937827   358980497   359025422   359065697   359099864  
  3260.000000   359135024   359179403   359233522   359290723   359343542  
  3255.000000   359387953   359424612   359459189   359499593   359549984  
  3250.000000   359607975   359668243   359726647   359780122   359826318  
  3245.000000   359865792   359902366   359939362   359977646   360018391  
  3240.000000   360065182   360121976   360191109   360273259   360364739  
  3235.000000   360453661   360524667   360572144   360606802   360645971  
  3230.000000   360699075   360764227   360834632   360904705   360972577  
  3225.000000   361041222   361117120   361204909   361303001   361404755  
  3220.000000   361502939   361593638   361678765   361765694   361861260  
  3215.000000   361964154   362065992   362161593   362254983   362353455  
  3210.000000   362458747   362566838   362673241   362775550   362873123  
  3205.000000   362967701   363063362   363163311   363267493   363374473  
  3200.000000   363483685   363594742   363707047   363822224   363944472  
  3195.000000   364075988   364214067   364354188   364493827   364631712  
  3190.000000   364766203   364897428   365028793   365163360   365300120  
  3185.000000   365436106   365570751   365705806   365842534   365981313  
  3180.000000   366122649   366266540   366412093   366559296   366709259  
  3175.000000   366860935   367010163   367154505   367296972   367442113  
  3170.000000   367590036   367737475   367883531   368031051   368182546  
  3165.000000   368337242   368492189   368644656   368793966   368942413  
  3160.000000   369093445   369247802   369402964   369557862   369715836  
  3155.000000   369880120   370047719   370210533   370362313   370502819  
  3150.000000   370636796   370771395   370913234   371064378   371220618  
  3145.000000   371375859   371528311   371680962   371836411   371993392  
  3140.000000   372148323   372298472   372443207   372583472   372720407  
  3135.000000   372854119   372984180   373111312   373237200   373361679  
  3130.000000   373481933   373596008   373705393   373812676   373918136  
  3125.000000   374020577   374119838   374215798   374306437   374389706  
  3120.000000   374466778   374541143   374614716   374687106   374757920  
  3115.000000   374827252   374894227   374957459   375017493   375076866  
  3110.000000   375137119   375196784   375252733   375303570   375352313  
  3105.000000   375405862   375470285   375545733   375626921   375708404  
  3100.000000   375787149   375860143   375924008   375979652   376033960  
  3095.000000   376092912   376154689   376212210   376260532   376298805  
  3090.000000   376327039   376345392   376355958   376361756   376364120  
  3085.000000   376363023   376359112   376352599   376341962   376327522  
  3080.000000   376315405   376314004   376326022   376347368   376373805  
  3075.000000   376405880   376446973   376499445   376563507   376637364  
  3070.000000   376718379   376805402   376899847   377003034   377112953  
  3065.000000   377226194   377342215   377463160   377590077   377721765  
  3060.000000   377857360   377997170   378140576   378285657   378431367  
  3055.000000   378578050   378724771   378867708   379001781   379123441  
  3050.000000   379232568   379333296   379432538   379535517   379642396  
  3045.000000   379749126   379849810   379937097   380003044   380045344  
  3040.000000   380073950   380108527   380166283   380249859   380344990  
  3035.000000   380429208   380486404   380517139   380535398   380555191  
  3030.000000   380582425   380620006   380673849   380746459   380827192  
  3025.000000   380897663   380949364   380990897   381036031   381089770  
  3020.000000   381148095   381205291   381256517   381295691   381315899  
  3015.000000   381312481   381283179   381226313   381140573   381027151  
  3010.000000   380891885   380744646   380596317   380453518   380315239  
  3005.000000   380174988   380026162   379865965   379695373   379516367  
  3000.000000   379327929   379122929   378891198   378627996   378337043  
  2995.000000   378022787   377680741   377300014   376874575   376406583  
  2990.000000   375899582   375352017   374759599   374120246   373433329  
  2985.000000   372697657   371910757   371069049   370167789   369200740  
  2980.000000   368162880   367051630   365865443   364602205   363256427  
  2975.000000   361819648   360283945   358647521   356917855   355107892  
  2970.000000   353233854   351315918   349379996   347456338   345577667  
  2965.000000   343780906   342105516   340590951   339272415   338180072  
  2960.000000   337336882   336754919   336439065   336388434   336595342  
  2955.000000   337037231   337672700   338444760   339283385   340112573  
  2950.000000   340856458   341448721   341836952   341984096   341869715  
  2945.000000   341488806   340852086   339983055   338917367   337696525  
  2940.000000   336359839   334941346   333474301   331999182   330559575  
  2935.000000   329195736   327942393   326829023   325873987   325078118  
  2930.000000   324434178   323941288   323606765   323432621   323408236  
  2925.000000   323517193   323742840   324067581   324472251   324943751  
  2920.000000   325490606   326157674   327031190   328213525   329764067  
  2915.000000   331645006   333719559   335812779   337783202   339558142  
  2910.000000   341124114   342500135   343719171   344814577   345811672  
  2905.000000   346724891   347562653   348332910   349045494   349712752  
  2900.000000   350348387   350963564   351561091   352135950   352683220  
  2895.000000   353204759   353707460   354195594   354665587   355106913  
  2890.000000   355505779   355847648   356118266   356302840   356386065  
  2885.000000   356353226   356192287   355896055   355464015   354904858  
  2880.000000   354238377   353497339   352727419   351986130   351336024  
  2875.000000   350833401   350519721   350415786   350516482   350784908  
  2870.000000   351152954   351532933   351838532   352003930   351995052  
  2865.000000   351813443   351492090   351084830   350652279   350251378  
  2860.000000   349931239   349731630   349678281   349776734   350009348  
  2855.000000   350335578   350701551   351066062   351444433   351944290  
  2850.000000   352744630   354006027   355764509   357894807   360172104  
  2845.000000   362380667   364388204   366157139   367712216   369094854  
  2840.000000   370335393   371449964   372454758   373376588   374244909  
  2835.000000   375075351   375865997   376609298   377304146   377956371  
  2830.000000   378572010   379155096   379709127   380236374   380735681  
  2825.000000   381203612   381638480   382041136   382412967   382756577  
  2820.000000   383078566   383388589   383693252   383991900   384279602  
  2815.000000   384553309   384814901   385068685   385316384   385554847  
  2810.000000   385779425   385990350   386194049   386396813   386598803  
  2805.000000   386796148   386987866   387178206   387372498   387572319  
  2800.000000   387773207   387965158   388137549   388287603   388424366  
  2795.000000   388561746   388708058   388863295   389022871   389179086  
  2790.000000   389320961   389440087   389539158   389630810   389726453  
  2785.000000   389828704   389934448   390040564   390145162   390247953  
  2780.000000   390352608   390465867   390590884   390721934   390846787  
  2775.000000   390954081   391039608   391108727   391173594   391245433  
  2770.000000   391327789   391417381   391509914   391602414   391691455  
  2765.000000   391773630   391848715   391919592   391988628   392056931  
  2760.000000   392126642   392199706   392273538   392341792   392401493  
  2755.000000   392457217   392517061   392586486   392665736   392749595  
  2750.000000   392828143   392891146   392934924   392964599   392989454  
  2745.000000   393016987   393050294   393088361   393128464   393170257  
  2740.000000   393217306   393272361   393331786   393387747   393436106  
  2735.000000   393479871   393525290   393577274   393638772   393711524  
  2730.000000   393795985   393891162   393993546   394095635   394188443  
  2725.000000   394268578   394340977   394411585   394479938   394543031  
  2720.000000   394603580   394668159   394738161   394808488   394875280  
  2715.000000   394939706   395003620   395066512   395127626   395186775  
  2710.000000   395242439   395292922   395339700   395385577   395429453  
  2705.000000   395467695   395501275   395537218   395581637   395634161  
  2700.000000   395689276   395740006   395781147   395813202   395843156  
  2695.000000   395877629   395915677   395951790   395984458   396017004  
  2690.000000   396051169   396085430   396119417   396154863   396192152  
  2685.000000   396230487   396270858   396313944   396355941   396391938  
  2680.000000   396422702   396452538   396481620   396507393   396532871  
  2675.000000   396565572   396606971   396650064   396689189   396725652  
  2670.000000   396761811   396796506   396829475   396864593   396905535  
  2665.000000   396952470   397005230   397065120   397131122   397198497  
  2660.000000   397263166   397324193   397381396   397434974   397488237  
  2655.000000   397545593   397606417   397665603   397720974   397774843  
  2650.000000   397827763   397877147   397923486   397971701   398024201  
  2645.000000   398078295   398132263   398187763   398244533   398298814  
  2640.000000   398348869   398396215   398440031   398477370   398510639  
  2635.000000   398547231   398589317   398631046   398668291   398704041  
  2630.000000   398741632   398780509   398821420   398867675   398917553  
  2625.000000   398962980   398999839   399032804   399066608   399099820  
  2620.000000   399130745   399162272   399196904   399233222   399270281  
  2615.000000   399308734   399345669   399376148   399402761   399435732  
  2610.000000   399480244   399530719   399579145   399621147   399652892  
  2605.000000   399672705   399688860   399715374   399755531   399798297  
  2600.000000   399834180   399865186   399896478   399929145   399965648  
  2595.000000   400011216   400063775   400111480   400146047   400171051  
  2590.000000   400193456   400215867   400240543   400271488   400308192  
  2585.000000   400345515   400382345   400421423   400459653   400490378  
  2580.000000   400517599   400555182   400607507   400662994   400710682  
  2575.000000   400751350   400788158   400819606   400847447   400878813  
  2570.000000   400913766   400942069   400958975   400973652   400996439  
  2565.000000   401028175   401066712   401112059   401159061   401196506  
  2560.000000   401220419   401238805   401258301   401276418   401291399  
  2555.000000   401308519   401331460   401358021   401388906   401429581  
  2550.000000   401479167   401528848   401575291   401624003   401675340  
  2545.000000   401720113   401754383   401786340   401823090   401862371  
  2540.000000   401902167   401945918   401992552   402033122   402063808  
  2535.000000   402091896   402124139   402159491   402196641   402237408  
  2530.000000   402279112   402315224   402346474   402379445   402412407  
  2525.000000   402436477   402453228   402475989   402509709   402544662  
  2520.000000   402574506   402605330   402641141   402675185   402702725  
  2515.000000   402729196   402759820   402793187   402829469   402871860  
  2510.000000   402915685   402950042   402975252   403004988   403046280  
  2505.000000   403090928   403130402   403165454   403196806   403221244  
  2500.000000   403242002   403268969   403303802   403338200   403369801  
  2495.000000   403405008   403443687   403477456   403506341   403539739  
  2490.000000   403577264   403607114   403628806   403657929   403701198  
  2485.000000   403745582   403780456   403812669   403850440   403889650  
  2480.000000   403925861   403964086   404006423   404044570   404074203  
  2475.000000   404103291   404137577   404171511   404201550   404234325  
  2470.000000   404273505   404312318   404347135   404384517   404426849  
  2465.000000   404464581   404491103   404512543   404535824   404560160  
  2460.000000   404586578   404621514   404663713   404701708   404731875  
  2455.000000   404765097   404808007   404851832   404887437   404917488  
  2450.000000   404945963   404969839   404989477   405013949   405047951  
  2445.000000   405085412   405121726   405158651   405192450   405213101  
  2440.000000   405221565   405231794   405248935   405262177   405266664  
  2435.000000   405274876   405296840   405325054   405349163   405370973  
  2430.000000   405394583   405415527   405430494   405446282   405469840  
  2425.000000   405499758   405533753   405572449   405609876   405633814  
  2420.000000   405642926   405651515   405670912   405698065   405727493  
  2415.000000   405760573   405796487   405827208   405848905   405867395  
  2410.000000   405887292   405907405   405930419   405963285   406003016  
  2405.000000   406035369   406053045   406063414   406074740   406087957  
  2400.000000   406104967   406130530   406161511   406187557   406206421  
  2395.000000   406226080   406249337   406270592   406290424   406317776  
  2390.000000   406353654   406387270   406412812   406435691   406458135  
  2385.000000   406473011   406476900   406476368   406476885   406478883  
  2380.000000   406487755   406512036   406546299   406571872   406582608  
  2375.000000   406594323   406620079   406653134   406684015   406715155  
  2370.000000   406746878   406768988   406779193   406789741   406803953  
  2365.000000   406808207   406798134   406787637   406784332   406783621  
  2360.000000   406789797   406819617   406873322   406926360   406963439  
  2355.000000   406986733   406995996   406987652   406973281   406973140  
  2350.000000   406989709   407010727   407027041   407040774   407055110  
  2345.000000   407066184   407076576   407095048   407123604   407151172  
  2340.000000   407168164   407178272   407185602   407189144   407194358  
  2335.000000   407212168   407238129   407254538   407256097   407257260  
  2330.000000   407263339   407267494   407272055   407294899   407343653  
  2325.000000   407402602   407455898   407498068   407524350   407527598  
  2320.000000   407518756   407526024   407558190   407594594   407616407  
  2315.000000   407631671   407654696   407685122   407716439   407748826  
  2310.000000   407781092   407807732   407831793   407862997   407897835  
  2305.000000   407919159   407923396   407927259   407942932   407967142  
  2300.000000   407998597   408042845   408090795   408119918   408126387  
  2295.000000   408133260   408155254   408179791   408194707   408207954  
  2290.000000   408227612   408247182   408267446   408305990   408367428  
  2285.000000   408426286   408458747   408470489   408477905   408484264  
  2280.000000   408490555   408506144   408532402   408558262   408583414  
  2275.000000   408620376   408663468   408687506   408688998   408695513  
  2270.000000   408722258   408754086   408781402   408813887   408845383  
  2265.000000   408849594   408829215   408826544   408864619   408918254  
  2260.000000   408960851   408996880   409029859   409044241   409042163  
  2255.000000   409053192   409083305   409098969   409085228   409073690  
  2250.000000   409089608   409117107   409139881   409170420   409215323  
  2245.000000   409256616   409289884   409334154   409383435   409400340  
  2240.000000   409382164   409380191   409425145   409483714   409515426  
  2235.000000   409522775   409520610   409510450   409511435   409560007  
  2230.000000   409648390   409715749   409728581   409718677   409719446  
  2225.000000   409724066   409730876   409764954   409823545   409859978  
  2220.000000   409853650   409839650   409844520   409853747   409863677  
  2215.000000   409897552   409945370   409957927   409928079   409908641  
  2210.000000   409923714   409935775   409926153   409931207   409968160  
  2205.000000   410001720   410014771   410036534   410073266   410090397  
  2200.000000   410091067   410126979   410200514   410243445   410228690  
  2195.000000   410214234   410241148   410276298   410291399   410307550  
  2190.000000   410324166   410301963   410257532   410275127   410377522  
  2185.000000   410480510   410520819   410531409   410544108   410531465  
  2180.000000   410496552   410504419   410569231   410616904   410611551  
  2175.000000   410612420   410654308   410679140   410641382   410576809  
  2170.000000   410521142   410462662   410416756   410443641   410545905  
  2165.000000   410652976   410753010   410918083   411143420   411296463  
  2160.000000   411301883   411245824   411208435   411161686   411100476  
  2155.000000   411079615   411085480   411034766   410919465   410821635  
  2150.000000   410771174   410715734   410645660   410616394   410624630  
  2145.000000   410589727   410489372   410395223   410348250   410310296  
  2140.000000   410262703   410245344   410267422   410277170   410249728  
  2135.000000   410218702   410198315   410161813   410111030   410081209  
  2130.000000   410065963   410018929   409940242   409885506   409876257  
  2125.000000   409873471   409854347   409842559   409845558   409831967  
  2120.000000   409794575   409770626   409777472   409789384   409795923  
  2115.000000   409819967   409857458   409864466   409830054   409799578  
  2110.000000   409800361   409806251   409797328   409790728   409788725  
  2105.000000   409763767   409719880   409702114   409721153   409735087  
  2100.000000   409729156   409743009   409793842   409844200   409873875  
  2095.000000   409910261   409959670   409984996   409979951   409989813  
  2090.000000   410030958   410061317   410059490   410062414   410092376  
  2085.000000   410116775   410113590   410111689   410133652   410161951  
  2080.000000   410189273   410234992   410286118   410297111   410276088  
  2075.000000   410292469   410367135   410435896   410455686   410461870  
  2070.000000   410488545   410520672   410558737   410636213   410733757  
  2065.000000   410771962   410736273   410710854   410745114   410789340  
  2060.000000   410801111   410813883   410855109   410897460   410937492  
  2055.000000   411022925   411153176   411254233   411298956   411348170  
  2050.000000   411429624   411486697   411505798   411564398   411676212  
  2045.000000   411738550   411711694   411694478   411746547   411792000  
  2040.000000   411785141   411810908   411925248   412049324   412113489  
  2035.000000   412161658   412224978   412252454   412251977   412322011  
  2030.000000   412464993   412551352   412531905   412499655   412486651  
  2025.000000   412404160   412243782   412127480   412099233   412072149  
  2020.000000   412033901   412092793   412255501   412365322   412345208  
  2015.000000   412293050   412267054   412203127   412100848   412073709  
  2010.000000   412146219   412193611   412151318   412096839   412064061  
  2005.000000   411985071   411866949   411809871   411816298   411777463  
  2000.000000   411679783   411637976   411681182   411698622   411647623  
  1995.000000   411624034   411667759   411679127   411612254   411576182  
  1990.000000   411638596   411716324   411747096   411777833   411810376  
  1985.000000   411746932   411579126   411452699   411453398   411495183  
  1980.000000   411506259   411552557   411661276   411711271   411641167  
  1975.000000   411558267   411524846   411467696   411376786   411360860  
  1970.000000   411434352   411461259   411385287   411318961   411323976  
  1965.000000   411310044   411228007   411153573   411117982   411045304  
  1960.000000   410919318   410833120   410814163   410778392   410700502  
  1955.000000   410658541   410668479   410638811   410536638   410445248  
  1950.000000   410414449   410393542   410352411   410329782   410321266  
  1945.000000   410259115   410144895   410071086   410066460   410059725  
  1940.000000   410027231   410028609   410078727   410111421   410097995  
  1935.000000   410088672   410096608   410065285   409990017   409947328  
  1930.000000   409971237   410002550   410001373   410002518   410024887  
  1925.000000   410034170   410017393   410003896   409990258   409937001  
  1920.000000   409859400   409829750   409854399   409858524   409826660  
  1915.000000   409820714   409856691   409886513   409899960   409945405  
  1910.000000   410022453   410052823   410011740   409970067   409965230  
  1905.000000   409952851   409909037   409879753   409891221   409899825  
  1900.000000   409879542   409868170   409886030   409896849   409879101  
  1895.000000   409859999   409847228   409809288   409754311   409744887  
  1890.000000   409789845   409816939   409803829   409804124   409826142  
  1885.000000   409815022   409759577   409723055   409739277   409760290  
  1880.000000   409748293   409731666   409729462   409711012   409670236  
  1875.000000   409651613   409661497   409636558   409547778   409466225  
  1870.000000   409471048   409528250   409560937   409575624   409589307  
  1865.000000   409571597   409527465   409513033   409543218   409562591  
  1860.000000   409538998   409508259   409494670   409469131   409423030  
  1855.000000   409397201   409405030   409397776   409347660   409296474  
  1850.000000   409270946   409226105   409117773   408973758   408852568  
  1845.000000   408779520   408758026   408799233   408874088   408910271  
  1840.000000   408894287   408880498   408889118   408874930   408817329  
  1835.000000   408756789   408706292   408625190   408522479   408490125  
  1830.000000   408538783   408553573   408483134   408386825   408323045  
  1825.000000   408284893   408253516   408247852   408256177   408219973  
  1820.000000   408122851   408015914   407933888   407850911   407746013  
  1815.000000   407647031   407571253   407491552   407390973   407286231  
  1810.000000   407183036   407058192   406908249   406764836   406629790  
  1805.000000   406456644   406225537   405988880   405797376   405627539  
  1800.000000   405449417   405284978   405135730   404938228   404641160  
  1795.000000   404264134   403857895   403447779   403048190   402713094  
  1790.000000   402464556   402218741   401889809   401480907   401039950  
  1785.000000   400595766   400163068   399762192   399378985   398952053  
  1780.000000   398464110   397978531   397541561   397120268   396677497  
  1775.000000   396222120   395766094   395265481   394672212   394077589  
  1770.000000   393601992   393218642   392854211   392510716   392205204  
  1765.000000   391880612   391456483   390926974   390357176   389815426  
  1760.000000   389308118   388768404   388127075   387351514   386489249  
  1755.000000   385629119   384747723   383681990   382254930   380446104  
  1750.000000   378391561   376161425   373717923   371077765   368266152  
  1745.000000   365187507   361766323   358132447   354437126   350567019  
  1740.000000   346393099   342316373   338986411   336404760   333890214  
  1735.000000   330523841   326184041   322214232   319493889   317502116  
  1730.000000   315670331   313967401   312655229   311892462   311626469  
  1725.000000   311782974   312359603   313336640   314611289   316114254  
  1720.000000   317920259   320175569   322741589   325140465   327172704  
  1715.000000   329014461   330759813   332380111   333869715   335244594  
  1710.000000   336478974   337541177   338507367   339523422   340598006  
  1705.000000   341577762   342395883   343119647   343828463   344687425  
  1700.000000   345813484   347084375   348314091   349384157   350255983  
  1695.000000   351012692   351734546   352414796   353083487   353763974  
  1690.000000   354404084   354936503   355397500   355857990   356306046  
  1685.000000   356687905   356873434   357014359   357385508   357867787  
  1680.000000   358276087   358552111   358696145   358736629   358750573  
  1675.000000   358857820   359083152   359317792   359468162   359536767  
  1670.000000   359528879   359460585   359449727   359551581   359659559  
  1665.000000   359670118   359591031   359495291   359435439   359435981  
  1660.000000   359493351   359580945   359625990   359592829   359505308  
  1655.000000   359460542   359443101   359181748   358932212   358926135  
  1650.000000   358854516   358648755   358319551   357862322   357491738  
  1645.000000   357486287   357831864   358386333   359059097   359737499  
  1640.000000   360343605   360875353   361338291   361687366   361840580  
  1635.000000   361901121   362082995   362336664   362527476   362626612  
  1630.000000   362613099   362445236   362108017   361654275   361093002  
  1625.000000   360317139   359234038   357921229   356613726   355449203  
  1620.000000   354373736   353251531   351841535   349895967   347662717  
  1615.000000   345773350   344408405   343311629   342313560   341497395  
  1610.000000   341028863   340913411   341067321   341464855   342056162  
  1605.000000   342687253   343239883   343751179   344313687   344952634  
  1600.000000   345670113   346491641   347369014   348129904   348609592  
  1595.000000   348783787   348737840   348575635   348426977   348472599  
  1590.000000   348851657   349560659   350518622   351667470   352934462  
  1585.000000   354188649   355348942   356492679   357760341   359201052  
  1580.000000   360799042   362605593   364733539   367182585   369574731  
  1575.000000   371420923   372675460   373601922   374457970   375474534  
  1570.000000   376745117   378078348   379277332   380344857   381335988  
  1565.000000   382245532   383017508   383567692   383881716   384000287  
  1560.000000   384444888   385218141   385673614   386070805   386561713  
  1555.000000   387018535   387397940   387662363   387870532   388075604  
  1550.000000   388261556   388378326   388436323   388460089   388460781  
  1545.000000   388446776   388424672   388429195   388505601   388622743  
  1540.000000   388557204   388296482   388028401   387695536   387255632  
  1535.000000   386724104   386000537   385039139   384063678   383178583  
  1530.000000   382160617   380834734   379223050   377382981   375353833  
  1525.000000   373294092   371297537   369041011   365858967   361883016  
  1520.000000   358301223   355542519   353016096   350444984   348337580  
  1515.000000   347198937   346827892   346803669   346902030   346978755  
  1510.000000   346945506   346862954   347003114   347475961   348285343  
  1505.000000   349555484   351094701   352673801   354229018   355713343  
  1500.000000   357127255   358511713   359842308   360994373   361894156  
  1495.000000   362572630   363029929   363261060   363379349   363554304  
  1490.000000   363771499   363893188   363971240   364094691   364164690  
  1485.000000   364042841   363711145   363197917   362440656   361384868  
  1480.000000   360124214   358726181   357036700   354884670   352365210  
  1475.000000   349630934   346438412   342407700   337993843   334143108  
  1470.000000   330984034   328105218   325332368   322670153   320075390  
  1465.000000   317608667   315688547   314637852   314251045   314184785  
  1460.000000   314294199   314548506   314850964   315155796   315716074  
  1455.000000   316614583   317601662   318555399   319457392   320265956  
  1450.000000   320986347   321765566   322812205   324195906   325835538  
  1445.000000   327625006   329471372   331250700   332829644   334114732  
  1440.000000   335054824   335637420   335925889   336053524   336141457  
  1435.000000   336237026   336288345   336230275   336069533   335864745  
  1430.000000   335683850   335587544   335607758   335720107   335889514  
  1425.000000   336120776   336417192   336734699   337028370   337321877  
  1420.000000   337737901   338350075   339069653   339810581   340536661  
  1415.000000   341206951   341807242   342358385   342871640   343329849  
  1410.000000   343726619   344079994   344394454   344662764   344909253  
  1405.000000   345168140   345422430   345614519   345703923   345690000  
  1400.000000   345579708   345366707   345059532   344644492   344028798  
  1395.000000   343157362   342171804   341275726   340491211   339720426  
  1390.000000   338913058   338074950   337214783   336357731   335573641  
  1385.000000   334894576   334267449   333645168   333051084   332545350  
  1380.000000   332176575   331982874   331992506   332195764   332534722  
  1375.000000   332905591   333181849   333302791   333295224   333192233  
  1370.000000   333032998   332918883   332996719   333364364   334018552  
  1365.000000   334909588   335979776   337103993   338098546   338862905  
  1360.000000   339407426   339752706   339900876   339870343   339707359  
  1355.000000   339476731   339266868   339191197   339349630   339778710  
  1350.000000   340441874   341252488   342102480   342883747   343512588  
  1345.000000   343952520   344211481   344313783   344280850   344124335  
  1340.000000   343840810   343430409   342925406   342377983   341822971  
  1335.000000   341269914   340723743   340206735   339762148   339435736  
  1330.000000   339254312   339220740   339320318   339519440   339768874  
  1325.000000   340020582   340238845   340395060   340465090   340437751  
  1320.000000   340316540   340109118   339819343   339451365   339004957  
  1315.000000   338460494   337786374   336970247   336042295   335054288  
  1310.000000   334035180   332984787   331896448   330766233   329584195  
  1305.000000   328335804   327022708   325654527   324214323   322652336  
  1300.000000   320913710   318959400   316752772   314262651   311499364  
  1295.000000   308513307   305356459   302078089   298769978   295569455  
  1290.000000   292588959   289881359   287479755   285400510   283580981  
  1285.000000   281889413   280215506   278506010   276721743   274827200  
  1280.000000   272842887   270840409   268872652   266971888   265213190  
  1275.000000   263711161   262537057   261714185   261305174   261398443  
  1270.000000   262014494   263094069   264571535   266384800   268397542  
  1265.000000   270414965   272279856   273898679   275211888   276221630  
  1260.000000   277054698   277925854   279015027   280407054   282114754  
  1255.000000   284084889   286192191   288299198   290335226   292285135  
  1250.000000   294130336   295846291   297437343   298924969   300313314  
  1245.000000   301598330   302795353   303929385   305002642   306005825  
  1240.000000   306947077   307840384   308683567   309470214   310215116  
  1235.000000   310942722   311659143   312359377   313044100   313707300  
  1230.000000   314320256   314848670   315280573   315616192   315847806  
  1225.000000   315971931   316005649   315975180   315893527   315769189  
  1220.000000   315627032   315497772   315397940   315340061   315352538  
  1215.000000   315464689   315682369   315995855   316403655   316907207  
  1210.000000   317490440   318132136   318822968   319552333   320291936  
  1205.000000   321010604   321695594   322342499   322938253   323469580  
  1200.000000   323937797   324348889   324702578   325004182   325274067  
  1195.000000   325534942   325798111   326073151   326377209   326721500  
  1190.000000   327100527   327507350   327946879   328422393   328924093  
  1185.000000   329442268   329978419   330529271   331072246   331576531  
  1180.000000   332018214   332373250   332608914   332697655   332620746  
  1175.000000   332358804   331881620   331152424   330143255   328827225  
  1170.000000   327184066   325224902   323016897   320691273   318430584  
  1165.000000   316452896   314973031   314120747   313855892   313994564  
  1160.000000   314319898   314672133   314978554   315230369   315446903  
  1155.000000   315631285   315754705   315785995   315721443   315565339  
  1150.000000   315295908   314872752   314256329   313411179   312295826  
  1145.000000   310883969   309202629   307321044   305317008   303264149  
  1140.000000   301238815   299300517   297449441   295632790   293785656  
  1135.000000   291839069   289710280   287331377   284699672   281865240  
  1130.000000   278873669   275765012   272614236   269518120   266534861  
  1125.000000   263691702   261043171   258672182   256632022   254953088  
  1120.000000   253711324   252988918   252790791   253053039   253714874  
  1115.000000   254723200   255965629   257308636   258689319   260103359  
  1110.000000   261532518   262942056   264328667   265686964   266942066  
  1105.000000   267978237   268732452   269205912   269414621   269406657  
  1100.000000   269308013   269284250   269442298   269808400   270377454  
  1095.000000   271116767   271937963   272737928   273468930   274123219  
  1090.000000   274669789   275062347   275290821   275360915   275244975  
  1085.000000   274897151   274310029   273500835   272448456   271117309  
  1080.000000   269524312   267735676   265810296   263811338   261871325  
  1075.000000   260175453   258874974   258066367   257847703   258286566  
  1070.000000   259343285   260888193   262772728   264844424   266915949  
  1065.000000   268818484   270475642   271874900   272995812   273823506  
  1060.000000   274398364   274779193   274982401   274998497   274857390  
  1055.000000   274610450   274258384   273768422   273143926   272422198  
  1050.000000   271607829   270673141   269619481   268453058   267122556  
  1045.000000   265557266   263758792   261814763   259845044   257996027  
  1040.000000   256452887   255365517   254742288   254481474   254495315  
  1035.000000   254737380   255160877   255727147   256457931   257399755  
  1030.000000   258537770   259819025   261229532   262790276   264495208  
  1025.000000   266312038   268234504   270268034   272385531   274550515  
  1020.000000   276758767   279013787   281282298   283520894   285714754  
  1015.000000   287842934   289831963   291599382   293132099   294484687  
  1010.000000   295729045   296936301   298181094   299506376   300880608  
  1005.000000   302226374   303482508   304619640   305619020   306472599  
  1000.000000   307201130   307842290   308427172   308987672   309569473  
   995.000000   310212702   310926239   311702531   312543259   313447776  
   990.000000   314389495   315330214   316247047   317121694   317912033  
   985.000000   318562190   319045873   319392233   319676529   319984984  
   980.000000   320368772   320811967   321253357   321654674   322041638  
   975.000000   322472736   322984707   323581349   324250143   324965529  
   970.000000   325686309   326373209   327008206   327589301   328119465  
   965.000000   328612783   329099248   329607305   330147382   330720465  
   960.000000   331331024   331978415   332646640   333316174   333979564  
   955.000000   334635171   335274016   335881449   336445666   336959131  
   950.000000   337421226   337846666   338259444   338671253   339072992  
   945.000000   339451701   339805962   340137407   340439168   340700262  
   940.000000   340910826   341058971   341131918   341130652   341074038  
   935.000000   340977316   340836183   340638362   340385727   340095175  
   930.000000   339782660   339457816   339128936   338804866   338495414  
   925.000000   338218499   338000907   337863119   337807676   337827579  
   920.000000   337916794   338059543   338221345   338368368   338491228  
   915.000000   338600862   338707666   338820213   338961639   339169700  
   910.000000   339479973   339914317   340481861   341179732   341989653  
   905.000000   342884733   343837549   344820379   345805481   346769852  
   900.000000   347695074   348558475   349334098   350007260   350586074  
   895.000000   351089688   351524767   351876291   352113889   352206177  
   890.000000   352126910   351858542   351406420   350817899   350189949  
   885.000000   349647676   349301953   349206338   349333646   349586472  
   880.000000   349840314   349994445   349999428   349847861   349544131  
   875.000000   349086755   348478521   347751796   346979336   346256422  
   870.000000   345658441   345202621   344841766   344491440   344073886  
   865.000000   343549432   342915558   342184580   341364626   340459763  
   860.000000   339481779   338456255   337421108   336422517   335510928  
   855.000000   334736420   334154023   333829265   333824099   334159709  
   850.000000   334793705   335643913   336620205   337635652   338611545  
   845.000000   339496469   340280337   340976265   341590710   342116736  
   840.000000   342551066   342900941   343173594   343367804   343480624  
   835.000000   343519573   343502328   343448164   343371681   343281304  
   830.000000   343179264   343059230   342905790   342701457   342441862  
   825.000000   342147453   341854557   341591308   341367908   341191148  
   820.000000   341074370   341025178   341032919   341077912   341146979  
   815.000000   341230029   341306774   341349209   341340686   341288876  
   810.000000   341221390   341171936   341163638   341192800   341224918  
   805.000000   341214640   341136255   340995384   340813898   340609545  
   800.000000   340392404   340176409   339988586   339862286   339816260  
   795.000000   339837219   339885501   339919169   339910916   339846796  
   790.000000   339722103   339544790   339333179   339101458   338848601  
   785.000000   338560115   338207191   337731392   337041202   336037593  
   780.000000   334649669   332856392   330701648   328320051   325941031  
   775.000000   323833773   322214899   321177921   320660501   320447094  
   770.000000   320235597   319763816   318908904   317677856   316126486  
   765.000000   314302031   312240812   309972868   307520671   304916771  
   760.000000   302231071   299569490   297050964   294797764   292924384  
   755.000000   291502938   290532157   289945866   289633984   289452374  
   750.000000   289255637   288963029   288599389   288266441   288088819  
   745.000000   288191774   288691196   289666518   291142653   293099394  
   740.000000   295479215   298175964   301040363   303912321   306646703  
   735.000000   309113415   311195998   312818433   313986918   314806224  
   730.000000   315444497   316065343   316764016   317540083   318323845  
   725.000000   319031450   319598262   319976231   320137077   320109354  
   720.000000   320001308   319943468   319992840   320105653   320194976  
   715.000000   320194433   320076218   319837848   319481509   318993815  
   710.000000   318345303   317526476   316590202   315652174   314850986  
   705.000000   314304671   314069029   314100594   314272663   314461490  
   700.000000   314627380   314815179   315090190   315481069   315967251  
   695.000000   316497827   317024244   317531015   318037719   318563823  
   690.000000   319094759   319589156   320014280   320360879   320626430  
   685.000000   320808269   320915629   320963561   320951704   320872647  
   680.000000   320740497   320584206   320411413   320208476   319977366  
   675.000000   319741036   319512759   319301431   319143333   319071857  
   670.000000   319042047   318911525   318601779   318278508   318144854  
   665.000000   318200357   318336764   318455293   318493286   318421230  
   660.000000   318212551   317826540   317235495   316461232   315585424  
   655.000000   314732618   314024001   313537506   313309195   313325244  
   650.000000   313492347   313673937   313795038   313882972   313999723  
   645.000000   314167499   314363093   314537573   314624660   314571113  
   640.000000   314389081   314164838   313997032   313929257   313935044  
   635.000000   313935404   313833118   313572915   313183121   312736291  
   630.000000   312257513   311693435   310973631   310066175   308968742  
   625.000000   307687540   306252764   304716936   303102724   301388101  
   620.000000   299582663   297788806   296153520   294789108   293763394  
   615.000000   293109601   292794764   292722322   292810568   293027729  
   610.000000   293339517   293684251   294022460   294363378   294716532  
   605.000000   295068866   295431685   295851452   296342955   296854207  
   600.000000   297308486   297631684   297734047   297519893   296959293  
   595.000000   296139637   295246250   294518541   294202035   294433416  
   590.000000   295121037   296007287   296862607   297579882   298136994  
   585.000000   298558236   298902083   299209098   299447690   299562237  
   580.000000   299577403   299595506   299685364   299841523   300055023  
   575.000000   300341899   300680864   300994574   301222868   301358135  
   570.000000   301394800   301294159   301040270   300701032   300397029  
   565.000000   300224043   300219068   300353645   300540802   300700360  
   560.000000   300834276   300994698   301178754   301315066   301362377  
   555.000000   301359918   301359493   301363877   301360727   301358619  
   550.000000   301354627   301306015   301165209   300909426   300526493  
   545.000000   300023791   299477961   299033055   298817012   298875816  
   540.000000   299184840   299664896   300179087   300594348   300893169  
   535.000000   301173709   301512613   301875598   302194211   302469485  
   530.000000   302757279   303090787   303461030   303837383   304173237  
   525.000000   304426931   304599032   304718762   304808944   304889328  
   520.000000   304989540   305123478   305257834   305354450   305440803  
   515.000000   305570904   305734053   305866733   305948437   306019390  
   510.000000   306095628   306131216   306093726   306014499   305930446  
   505.000000   305825548   305676229   305510807   305375526   305271691  
   500.000000   305166024   305028488   304830798   304539697   304147512  
   495.000000   303687796   303205020   302737531   302339443   302073250  
   490.000000   301957652   301953732   302030081   302184356   302387423  
   485.000000   302572513   302712687   302858996   303058274   303285913  
   480.000000   303502877   303709818   303904131   304036130   304057705  
   475.000000   303977560   303838408   303665496   303478535   303308517  
   470.000000   303128467   302838038   302361228   301691201   300837453  
   465.000000   299783398   298587833   297452715   296576887   295983836  
   460.000000   295651452   295728924   296404311   297535310   298735374  
   455.000000   299803802   300751640   301589415   302267626   302765017  
   450.000000   303129621   303431966   303754599   304154530   304584176  
   445.000000   304907344   305068213   305167073   305316141   305492143  
   440.000000   305631998   305765350   305967097   306239444   306523473  
   435.000000   306812296   307138865   307455687   307659791   307709186  
   430.000000   307665736   307635178   307700035   307895391   308185664  
   425.000000   308497719   308845142   309334193   309994668   310711454  
   420.000000   311338471   311604910   311330860   310902455   310688593  
   415.000000   310729599   310886768   310899631   310630373   310277521  
   410.000000   310178299   310419255   310802314   311134100   311367311  
   405.000000   311453730   311360724   311261000   311507656   312149876  
   400.000000   313124624  
##END= 
