##TITLE= flavia
##JCAMP-DX=4.24
##DATA TYPE=INFRARED SPECTRUM
##ORIGIN= Exported PE Spectrum Data File
##XUNITS=1/CM
##YUNITS=ABSORBANCE
##RESOLUTION=8
##FIRSTX=3030
##LASTX=600
##DELTAX=-2
##MAXY=0.048210919
##MINY=-0.00010746717
##XFACTOR=1
##YFACTOR=4.4899917e-011
##NPOINTS=1216
##FIRSTY=3.5248697e-005
##XYDATA=(X++(Y..Y))
3030+785050+0+807950+3596488+8647128+15962484+24424757+33009203+41426342
3012+49888657+57052677+61635996+62680241+59914560+53652203+45465012+36850366
2996+28931288+22124698+16619057+12825850+11135444+11805293+14301822+18056822
2980+22873781+29111206+37063761+47291610+60052371+75776112+94476067+115533703
2964+138423248+162143850+185344071+206229091+222826327+234424198+241710307
2950+246930867+252799247+262172186+277869377+301536837+333880879+374089032
2936+420358509+470796378+523979516+577720164+628389018+671313236+702680155
2922+719442001+720175611+706075734+679523907+644457452+605387299+566107400
2908+529426706+496354198+466932315+440760111+417317289+396014397+376166404
2894+357253012+338907749+321730727+305939615+292314942+280769176+271530605
2880+264997438+262234412+263169802+266661916+271385991+276752534+283717430
2866+294072760+311413355+338264201+374927929+417857416+460524099+493916866
2852+510245906+505173030+479561073+439102313+391575983+344126608+301857179
2838+266650051+238367122+215909305+197837548+182688905+169358979+157677808
2824+147836510+139237794+131462087+124166976+117570130+111968868+107397787
2810+103482491+99389269+95025279+90621463+86419386+82769590+79594998+77171813
2794+74984922+72816575+70730575+68841044+66831997+64294647+61698886+59575674
2778+58376444+58159563+58160352+57768241+56571624+55117514+53586409+52211907
2762+51113566+50092221+48837194+47797264+47229923+46936006+46565136+45724289
2746+44644534+43941788+44216042+44885931+44886761+44122909+42889164+41891713
2730+41714617+41893331+42013595+42094074+42017909+41960287+41823057+41473426
2714+40887460+40086479+39166024+38149947+36995852+35979816+34982324+34239754
2698+33911322+34050212+34385571+34739475+34958014+34842024+34295882+33925012
2682+33400152+32814185+32368974+31626363+30984682+29989887+29677385+30249040
2666+31110089+31583468+31528542+31216082+30985885+30949545+30676868+29918368
2650+28668692+27068515+25821495+25139990+24986788+25460207+25832737+25992825
2634+25547615+24377590+22565013+20829472+19778880+19333670+19942495+20591103
2618+20828228+20850297+20620101+20135065+18890700+17136533+15541707+14844231
2602+15062770+15026430+14796233+13981978+13106657+12741056+13270230+13860470
2586+13786918+12465558+11534441+11166226+10877660+10084603+8375613+6780788
2570+5987731+6516905+7165555+7461048+7581353+7178623+6539556+5940356+5866804
2552+6592448+7862368+9073837+9486191+9003811+7977114+6581414+5164473+3962546
2534+3910276+5119089+6933284+8221789+8034072+6656957+4910796+3825689+3773419
2516+4225599+3451127+2581117+2042940+1873849+1917159+1474562+973597+902742
2498+1296470+1982290+2431814+2283922+1743132+934187+820810+1681860+2678273
2480+2915398+1814402+516895+0+1214994+4001708+7104407+8765442+7784751+5075614
2460+2000128+284002-170998+422684+1868664+3317298+4649071+5864066+6614435
2442+6663885+5627397+4744942+4308526+5040269+6409253+7587078+7673697+6443395
2424+4222819+2504039+1372013+1381596+1802745+2531875+3260963+3777692+3962546
2406+3449136+2840104+2095708+1465477+1536167+1256354+1371687+1487021+1602354
2388+1717688+1833021+1948355+2063688+2179022+2294355+2409689+2525022+2640356
2370+2755689+2871023+2986356+3101689+3217023+3332356+3447690+3563024+3678357
2352+3793691+3909024+4024357+4139691+4255024+4370358+4485692+4601025+4716358
2334+4831692+4947025+5062359+5177692+5293026+5408359+5523693+5639027+5754360
2316+5869693+5985027+6100360+6215694+6331028+6446361+6561694+6677028+6792361
2298+6907695+7023028+7138362+7253695+7369029+7484362+7599696+7715029+7830362
2280+7945696+8061030+8176363+8291697+8407030+8522363+8637697+8753031+8868364
2262+8983698+9099031+9214364+9329698+9445032+9560365+7440680+7702529+10136169
2244+13753897+16984036+18507011+18925464+19033323+19725283+21229672+23626100
2228+24044595+22564764+20230023+19310356+20639515+23540435+25724463+26862462
2212+27453532+28164076+28351544+26170793+22535102+19018845+17308029+18015919
2196+19443313+22556591+26599161+32760421+36694136+36024038+32446758+26562281
2180+23569059+22843248+25162723+30623063+37325901+43221661+46106651+44175470
2164+38710442+33407411+27968975+24046503+20201067+19284096+21446926+24092924
2148+21954653+17511842+11911410+7821714+6692343+6879852+7898335+7135355+3398774
2130+782603+911661+3937365+8202955+13071188+17087208+20545678+23597932+26360750
2112+27960720+27293319+25834728+25323931+25256561+25231670+24487233+23028642
2096+21065601+19317616+19194448+20231558+22468727+24862501+26770450+27634985
2080+26988824+26613432+25890276+25748565+25662610+24920828+26982767+31508547
2064+35259025+35037664+30942658+25631662+23785400+28056300+34013125+39720380
2048+41901753+39917472+35395011+29791923+25120782+21362961+20815036+22024679
2032+23855633+24855573+23473935+20470135+14954704+9964963+6307990+3851119
2016+5310374+8237843+15591157+19700102+21451406+18120999+12029433+6442317
2000+3812871+4714534+8470363+12866048+15291723+18046576+20474905+22998815
1984+25371348+27141237+27618142+24731161+18310333+13763977+11692082+12208770
1968+13997244+12581133+10161433+7839925+5693689+3507629+2210993+739086+0+192156
1948+3639342+7182149+8972615+7754965+5108926+2813346+2827658+3925169+5213840
1930+5382100+4398091+2678688+2329223+4117034+7354475+9742316+10587643+9813379
1912+9559494+10848165+13331586+15953067+16721399+14885134+11487730+8475300
1896+8048841+10609298+14850329+17684210+17833885+15594061+12754248+10533008
1880+9681749+9581854+9906760+11232642+11942523+11728463+10664804+9871955
1864+9288892+9709377+9495318+8102438+7020194+6864586+7553227+8053362+8184453
1846+7351779+5826191+4531546+4508647+5375172+6507198+7660505+8062406+7115567
1828+5050972+2965137+2769663+4116785+5809016+6731297+7093372+6473098+5332485
1810+4271480+3999011+4610657+5917913+6646420+6259785+5581101+5598026+5248562
1792+3531814+1294644+0+183402+2004899+2841431+2023898+1360314+1235737+572153
1772+81185+1730147+7350949+17819822+33176551+54122013+84856503+127934048
1756+181307724+244929702+319004374+400032532+478113641+536699042+566108686
1742+568097489+547763008+509772818+457750910+394655037+329097979+275345011
1728+238844275+215021166+198581571+185590862+174856862+165530054+158093605
1714+154801571+155555799+156838371+155747332+151828759+145730431+138129331
1700+130607923+125051174+122000786+123044408+127908535+134402873+142060101
1686+150787252+159620645+168602677+177436070+186261498+196241810+206686788
1672+217264517+229344933+242649347+255959070+270182073+285485701+300300768
1658+312697172+322789035+331048907+337211369+341090532+343647463+346485866
1644+349146342+350681140+350771617+348910628+345300035+340407077+335174238
1630+329482125+321947441+312052421+300086543+287711753+275711359+263564941
1616+251091916+238969392+228490314+219152844+209725146+199569936+189738677
1602+180770294+172656779+165079616+158102483+151247439+144551735+138235697
1588+132729393+127679790+122768205+118823083+115231075+111288565+106538977
1574+102439864+100661180+100727763+101736829+104105296+107339294+110023665
1560+112097428+113642845+117216641+124438449+133107233+141213114+147606562
1546+151318418+151846971+148993053+144657604+141726691+140633038+139597754
1532+137773976+134803197+131320044+127364301+122580157+116476519+111124246
1518+107370241+104760583+102347396+99127046+93015443+80866328+64840954+53252086
1502+48181201+44443169+39295331+32642066+25524218+19093973+12998300+6496412
1486+1794573+0+1075441+4747472+10336372+19435224+38654936+71311605+111019954
1468+149414036+181534395+206101278+223512935+234289705+239828202+240861163
1454+237624884+231964589+225685638+219568683+214014589+209721620+206551715
1440+203461419+198849850+192605455+186581426+181460055+177236116+173811331
1426+171382172+170309718+170652337+171833978+172896144+172819315+171109661
1412+168162735+164238811+160115761+156730802+154144956+151975987+149509658
1398+145946814+141608709+137628988+135024599+134629170+136482526+141383822
1384+149340982+159119514+169012211+176796837+180787427+181276113+180124009
1370+178809950+178098576+177246445+175454486+173139492+170566962+168536053
1356+167041413+165830898+164477014+163104545+161894031+161341915+161350046
1342+161437827+160986643+159813257+157700043+155127514+152515160+149621375
1328+146730205+143897485+141465671+139254222+137263138+134910932+132179103
1314+128969373+125679994+122310923+119321559+116833990+114742015+112673936
1300+110342970+107653621+104688152+101720027+99450168+98218373+98242434
1286+99304600+101104856+102806835+103951306+104076257+103402053+102271189
1272+101419058+101243994+101650375+102436421+103381767+104226182+104972403
1258+106061119+107927750+110516541+113867276+118120752+122756548+127979100
1244+133066205+137351541+140035912+140389193+138071544+133645783+127555378
1230+120203849+111915104+102750209+93391458+84138948+75555498+68092459+62169278
1214+57706430+54520595+52210828+50243639+48353445+46362360+44055331+41368637
1198+38302278+35835948+34187359+33592722+34333633+36487004+40379400+46029407
1182+54002538+64941305+78898807+95628129+115508854+138679207+165694000
1168+196903693+231400277+267930591+304298950+338607028+369657422+397144805
1154+419045985+433632722+440618193+440567914+434915585+424855955+410357165
1140+391336909+368851878+344741904+322108193+304455263+293049548+288220268
1126+288565584+291725201+295646802+298623223+300144704+300574897+301209608
1112+303593964+309214766+317910057+328139939+337952986+345437597+349643283
1098+350827497+351204672+353219984+360059430+373361147+393772955+420344363
1084+451219526+483377055+512616655+533755933+541283024+532439384+508969348
1070+476976762+445839085+423813369+416225545+423280046+441389886+466798404
1056+497352312+530675386+564375469+596562203+624915116+648688154+668104336
1042+683415805+695485602+705805754+716638321+730030308+748357940+770978708
1028+797398781+826755284+857699478+888309058+916510636+941329744+961722967
1014+976814154+987001556+993979062+999783059+1006303905+1015394709+1027106081
1000+1041225538+1055504295+1067027162+1073741823+1073415424+1065193054
988+1049069404+1025397505+993935918+955292556+911185204+863814856+815159488
974+766907680+719991337+674776850+632318252+593327002+557678480+524618583
960+493395947+463705245+436220849+411497653+389556897+370818072+356120074
946+345009064+337407964+333024724+331766420+333070191+335587298+338022099
932+339203740+338425908+337125123+334780924+331812800+326821565+318954966
918+307241271+292607075+276746270+261156275+245797182+231242636+216953591
904+203322986+190427816+178225601+166509251+154885826+143849156+133128348
890+121722633+109653168+96657108+83899998+72029658+62779803+58046104+58216190
874+62859951+71172840+80555776+90339618+100481885+110249796+119024738+125083614
858+127680371+128004447+126769954+123812450+118229151+111769701+105373972
844+100619032+97032293+92625158+86850699+79260136+71348401+63542867+55437317
828+46702532+38790798+32365863+26453344+21175369+15876155+12246852+8514088
812+4720259+1802579+0-1221548-1221797-757504-635623-901372+75419+1092035
792+1418268+1014459+0-1900315-2393482-1338783+1858500+7572724+15949914+25779388
772+37122213+49046483+58942332+65070736+67458245+67031454+66357748+64199896
756+58248050+46510957+32017975+20480008+14512231+14632370+17736729+21958843
740+28745687+35585632+39401531+40164179+41404728+47180018+59499882+76832387
724+94945463+111146938+121701227+125474646+123953995+120386338+118324067
710+119678781+125122195+133162199+139407424+140971882+136291781+131356799
696+129390108+128580996+125286805+117218923+107595211+102599164+101933423
682+104217387+106294261+106140935+102512213+95724041+88641165+86045238+83112127
666+73082200+62863768+60055441+61898675+66550899+66020563+56954401+46226209
650+40324807+41456501+44698920+43011003+33942186+19252734+5542977+0+456826
632+8469783+16007411+18556377+16421923+13780364+14176042+20226953+33403885
616+48980937+58225814+59733937+54121433+43928970+31041765+21085680+9483495+0
##END=
