##TITLE= Carolina Isabel
##JCAMP-DX=4.24
##DATA TYPE=INFRARED SPECTRUM
##ORIGIN= Exported PE Spectrum Data File
##XUNITS=1/CM
##YUNITS=ABSORBANCE
##RESOLUTION=8
##FIRSTX=3030
##LASTX=600
##DELTAX=-2
##MAXY=0.24880923
##MINY=-0.003015399
##XFACTOR=1
##YFACTOR=2.3172166e-010
##NPOINTS=1216
##FIRSTY=-0.003015399
##XYDATA=(X++(Y..Y))
3030-13013022-12778432-12401854-11854479-10926925-9381001-6976460-3703527
3014+114722+4090395+7430721+9621765+10456718+9932493+8424639+6267549+3899019
2996+1687397+0-896686-870449+0+485995+1498787+3118148+5498863+8733052+12704963
2974+17299358+22609868+28741988+36042907+44708662+54342613+64526512+74510836
2958+83682296+91594382+98097903+103187199+107456494+112061179+118258602
2944+126839473+138426792+153166148+171023621+191455371+213687182+236569773
2930+258878238+279199413+296241450+308672467+315399774+315801399+309897406
2916+298801612+283975506+267377119+250796737+235407823+221764471+209950472
2902+199631980+190555886+182379566+174984181+168232406+161919939+155959357
2888+150302300+145018219+140190489+135989841+132624660+130400016+129382787
2874+129444392+130167034+131145358+132524439+135011131+139868925+148273886
2860+160432245+175287868+190469651+202749935+208940702+206979971+196935167
2846+180716444+161281892+141563364+123753478+108954638+97258448+88063002
2832+80706715+74494599+69110200+64438830+60405893+56886378+53653925+50685418
2816+47992110+45589980+43465139+41564599+39786530+38015117+36271483+34559746
2800+33053789+31604969+30140682+28762823+27622640+26699041+25894280+25111673
2784+24308455+23539705+22910372+22369524+21892499+21390750+20771705+20052343
2768+19400888+18942866+18703004+18643167+18621399+18453013+18151384+17953707
2752+17828020+17727027+17526231+17287879+16970335+16690828+16465337+16202807
2736+15948508+15661284+15445600+15325573+15301233+15327309+15341038+15242135
2720+15026934+14740739+14442712+14211579+13980430+13745680+13485737+13284427
2704+13137133+13018665+12859539+12666974+12507864+12348738+12223067+12126704
2688+12001018+11962804+12032094+12056112+12026644+11860315+11694003+11470057
2672+11291896+11221272+11336862+11452453+11435846+11287009+10973049+10647242
2656+10329665+9971463+9592667+9132073+8642686+8297843+7936538+7465157+6981413
2638+6563535+6170848+5786907+5325301+4876025+4497229+4044368+3694895+3583115
2620+3573694+3527747+3318221+2895696+2343016+1802698+1377087+1164973+1201354
2602+1303569+1271014+1095940+896173+782334+705520+628707+523614+450916+496557
2582+522119+412895+259444+0-332720-568193-713654-623481-573450-458583-457426
2560-468101-418054-221920+14871+239814+342833+226712-59707-366690-494659
2540-318058+0+227114+490239+567133+534466+425129+286983+242467+177887+109192
2518-28422-105349-165298-160942-144238-192355-236341-324585-243061+0+288719
2496+561474+652130+488647+252113+141088+260039+411400+583338+694556+765148
2476+751371+753541+590042+491380+586666+774553+801401+767045+729603+744104
2456+786916+644526+348829+17105-161295-182790-91105+16511+147808+388683+733478
2434+1074655+1190519+980221+592952+189720+0-39435+73904+268029+433858+615620
2412+817462+1043482+1237591+1366895+1171066+605331+0-388763-448793-295840
2392-26108+89933+205975+322017+438060+554102+670144+786187+902229+1018271
2372+1134314+1250356+1366398+1482441+1598483+1714525+1830568+1946610+2062652
2354+2178695+2294737+2410779+2526822+2642864+2758906+2874949+2990991+3107033
2336+3223075+3339118+3455160+3571202+3687245+3803287+3919329+4035372+4151414
2318+4267456+4383499+4499541+4615583+4731626+4847668+4963710+5079753+5195795
2300+5311837+5427879+5543922+5659964+5776006+5892049+6008091+6124134+6240176
2282+6356218+6472260+6588303+6704345+6820387+6936430+6344459+5809077+5630209
2264+5630884+5672201+5457322+5225980+5519377+5976386+6177697+5674725+4556471
2246+3595124+2929586+2763065+2972607+3628692+4216869+4693925+4990426+4884095
2228+4677961+4507839+4489480+4690276+5123090+5551788+6068456+6353108+6326518
2210+6487717+6676681+6834264+6851402+6397817+6347562+6700121+7727639+8715545
2192+9328416+9069808+8416119+8142077+8051695+7762220+7416156+7605634+7742639
2174+7939834+8579971+10146119+12173214+13990429+14571919+13528774+11487082
2158+9313175+8026181+7518065+7471925+7509641+7555073+7194604+6551204+6294654
2140+6786115+7361431+7240181+6700684+6507926+6569306+6961478+7528563+8139376
2122+8627252+9258129+10024821+10831640+11491326+11783695+11789514+11596242
2106+11247091+11109379+11238667+11463658+11485426+11284437+10991875+10655071
2090+10363024+10066347+10203866+10520413+10900239+11499220+12257696+12971914
2074+13149046+12920276+12194033+11344836+10603160+10390852+10731065+10924144
2058+11065265+11695627+12695895+13326258+13372205+12785892+11674840+10485592
2042+9396661+8962626+9223098+9987732+10359326+10167099+9590560+8899300+8771363
2024+8484460+7528772+5984038+4566888+3669333+3743575+4790128+6105754+6880677
2006+6883410+5886052+4407168+3146925+2657329+2929120+3840372+5068011+6090385
1988+6911625+8354304+9540273+10243687+9850808+8184664+6224255+4589492+4033018
1970+3323237+3070802+2491194+1864754+1628782+1187544+381047+0+471574+1207061
1950+1824209+2040616+1706046+1623043+1972692+2885665+3668980+3888988+3754539
1932+3825356+3750070+3548743+3143163+2910455+2630931+2441951+2587364+3082603
1914+3353525+3097666+2779045+2994937+3380084+3781162+3780985+3359473+2667361
1896+2069393+1857262+1931665+2159389+2336183+2473365+2544182+2544005+2524263
1878+2488589+2351054+2012883+1682944+1761462+1992788+2122252+2255833+2361633
1860+2471548+2510968+2420248+2231782+1827247+1187609+740374+551893+779617
1842+1211064+1544766+1489543+1124621+505029+62425+0+258318+842782+1454528
1822+1697397+1356381+728799+203610+66300+230988+482104+705424+615459+223497
1802-39322+98083+188176+23600+0+93919+372012+513245+497586+458263+415338+356450
1778+168450+0+72923+1045620+3218032+6083392+9337676+13920271+21069475+32175301
1758+47424510+65800034+87099179+111523112+138367518+164509184+184101897
1744+193388128+192873035+184501770+170364546+152262967+131564458+110836096
1730+94123533+82305450+74115288+68100206+63420122+59906298+57834477+57917706
1714+59443951+60768018+61203114+60703985+59424933+57457032+55368235+54246090
1698+55046462+57625787+61170736+64785650+67817708+70770010+74874167+80895165
1682+88114318+94605026+100321984+106197908+112498767+119466885+127249876
1668+135230415+142978938+150879224+159019774+166556343+172893728+178183693
1654+182868680+187282021+191015773+193730913+195815337+197513425+198590041
1640+198945912+198474033+196957321+194720876+192512727+190442964+187608214
1626+183320158+177491821+170717410+163476907+155619594+147052838+138366730
1612+130312366+123099644+116208469+109411936+103194675+97563373+92216063
1598+87052911+82107371+77422143+73042498+69194811+65971137+63065907+60181255
1582+57497770+55135285+52964176+51053893+49660118+48843059+48384040+48106109
1566+48256199+48744815+49245761+50118654+52503518+56109686+59334148+61760168
1550+63723696+65178433+65801834+65675666+64970225+63964861+63034606+62221147
1534+61228644+59762332+57852049+55594014+53180084+50797536+48574467+46729005
1518+45199432+43310756+40738376+37740030+33947390+28917994+23192033+18578314
1502+15583055+12901113+10010288+7431219+5219983+3006191+1097966+0-320823+63133
1482+1302122+3744909+7115266+12305733+22690621+39580203+59291562+77720894
1466+93312019+105993398+115542818+122120757+126667148+129466449+129986237
1452+128588138+126188934+123452235+120961459+119206332+118202317+117619622
1438+116850197+115929010+115137962+114554768+114093483+113992329+114377315
1424+115236125+116565127+118292845+119966014+120896333+120692788+119468589
1410+117516426+115229888+112932529+110840452+108884689+106665029+103996237
1396+101048629+98579444+97287852+97690844+99977254+104260761+110036672
1382+116276119+122145145+126993004+130290293+132420311+134063642+135594325
1368+137113673+138342888+139036544+139185413+138943284+138545807+138232683
1354+137995200+137864707+137991438+138496821+139505337+140916153+142516254
1340+144038706+145071401+145251651+144448273+142550626+139462573+135464973
1326+131175678+126960947+123076011+119594918+116608727+114000110+111684762
1312+109661107+107823683+106044360+104186358+102176079+99978540+97510368
1298+94751049+91841511+88900077+86070761+83536257+81394793+79637623+78041991
1282+76368645+74535337+72538433+70542559+68773010+67419170+66706849+66651996
1266+67113104+67825811+68447974+68802109+69039431+69468161+70267296+71597343
1250+73578652+75985958+78429276+80452288+81637742+81702756+80396759+77734157
1234+73938735+69193606+63623845+57391471+50757312+44048012+37728182+32273658
1218+27911826+24862325+23112358+22495725+22536045+22662246+22318786+21160951
1202+19180510+16494725+13335164+10039274+6794314+3862107+1494800+0-638110
1184+461591+3492507+8620355+15945936+25740363+38387900+54510067+74568294
1168+98825979+127004772+158244063+191065289+223745040+254604635+282245345
1154+305088292+321839631+331454998+333440583+327962523+315884065+298705828
1140+278355522+256999465+237107020+221200505+210794524+206022804+205729375
1126+207887783+210503570+212316815+213106818+213517639+214532971+217036093
1112+222024525+229927287+239932639+250204991+258391761+262953167+263966442
1098+263182741+263585362+267934301+278072381+294566496+317137812+344882924
1084+376228192+409017007+440268130+464976441+476811179+470979177+447007655
1070+411419812+375397290+348968753+337853346+342377229+358888803+383655279
1056+414019490+447913345+483353605+517735673+548043841+572522675+591004111
1042+604308119+614101518+622699848+632339876+645896544+665425851+691348876
1028+723013553+759044949+797382626+835493945+871164711+903266671+930824104
1014+952867531+969497975+982205220+993084109+1004243888+1016940780+1031431175
1000+1046377244+1059698807+1069349124+1073741823+1071182240+1060392479
988+1040825681+1012778105+976440289+933029167+884481837+832764464+779900381
974+727423679+676946067+629282627+584912055+543799111+505933764+470885097
960+438195699+407814640+379950240+354834066+332747490+314219882+299873694
946+290399383+285663675+285096558+287243134+290629053+294141013+297075759
932+299132853+300009252+299489464+297519955+293900089+288082460+279514096
918+268061209+253990284+238191289+221873759+205833004+190768676+177005360
904+164531804+153162772+142672422+132539068+122596093+112617621+102203924
890+91002057+79367569+67973844+57790621+49731531+44261701+41958829+43374918
874+48633404+57587734+69218749+82521214+96035600+108364210+117684314+122732937
858+122907625+119423060+113889439+107622726+101560732+95795094+90046433
844+83898044+77328802+70270865+62977824+55615331+48393767+41206702+34054106
828+27039897+20519528+15156190+10655585+6905049+3761018+1497243+0-1920989
810-3580638-4950683-6231697-7007006-7070830-6513230-5534778-4532146-3633433
792-2668389-1523769+0+812992+2586978+5717055+10667771+17415431+25800650
774+35037221+44457964+53204842+60586819+66138446+69280837+70155017+68019726
758+63275594+55899083+47002822+37533527+28814751+21263262+14890444+9740925
742+5791168+3556010+3236729+4215856+6058746+9002624+13199124+19018265+26330277
724+34558525+42859374+50384883+56855832+62297302+67087028+71612776+75415722
708+77902254+78506861+76876247+73249500+68201392+63633201+59522357+55901334
692+52503518+49674234+47686012+45932893+44187042+41882433+39343299+37162672
676+36511571+38388929+40867679+40911086+36414404+29529193+24379674+22825198
660+22264061+20563417+18028398+15844685+13986169+11685161+9828638+8536532
644+7181598+4657383+2534890+923824+0-4037920-7513032-9532764-10679474-11556097
624-11020555-8616014-3616071+3615043+9724655+12648791+11904896+9887736+9722597
606+11076116+10880625+7123594+0
##END=
