##TITLE= Carolina Isabel
##JCAMP-DX=4.24
##DATA TYPE=INFRARED SPECTRUM
##ORIGIN= Exported PE Spectrum Data File
##XUNITS=1/CM
##YUNITS=ABSORBANCE
##RESOLUTION=8
##FIRSTX=3030
##LASTX=600
##DELTAX=-2
##MAXY=0.19862039
##MINY=-0.0043335557
##XFACTOR=1
##YFACTOR=1.8497966e-010
##NPOINTS=1216
##FIRSTY=-0.0043335557
##XYDATA=(X++(Y..Y))
3030-23427202-22774538-21774520-20307279-18272926-15302838-11179193-5888458
3014+147900+6404015+11483373+14572038+15492790+14511783+12141351+9012408
2998+5623753+2492876+0-1563585-1987146-1431151+0+1064342+3056041+6160052
2978+10392488+15694058+21903008+29058688+37290551+47068439+58572152+71485912
2962+85198784+98514033+110466280+120342768+128117720+133886513+138482416
2948+143441786+150478848+160985603+175828873+195270220+219141484+246747310
2934+277083007+308758505+340176870+369479521+394546232+413231644+423672667
2920+424850431+416781048+401013805+379895692+356402153+332926014+311031343
2906+291482455+274357325+259445865+246457431+234842954+224135856+214009403
2892+204337929+195149789+186466894+178284129+170980992+164995101+160716346
2878+158473394+158304268+159902210+162490021+165353010+168603311+173393191
2864+181798411+195806439+215600338+239194491+262782844+281356123+290316210
2850+287059545+272020485+248318146+220360534+192435788+167504491+146961867
2836+130682894+117854927+107412696+98680864+91232082+84961990+79592834+74787567
2820+70302589+66056057+62190391+58824815+55941285+53501153+51312334+49147360
2804+46984964+44819990+42862527+41091309+39526978+38121805+36853899+35508015
2788+34164065+32863292+31677875+30687101+29869662+29073490+28267651+27519168
2772+26792596+26118224+25527650+24995057+24499196+24076158+23715631+23251993
2756+22814133+22449115+22162699+21953617+21698779+21531586+21365037+21193332
2740+21026804+20757143+20403705+20004512+19734852+19641770+19698843+19771404
2724+19761455+19616173+19300757+18902852+18504948+18205643+17978536+17721121
2708+17323861+16865378+16442984+16092768+15820530+15599868+15457164+15391793
2692+15352200+15415074+15514681+15583354+15590826+15479055+15377595+15178824
2676+14933653+14652393+14484555+14502338+14679923+14697685+14313958+13647964
2660+12997437+12604688+12412381+12169143+11791861+11276667+10746651+10359702
2644+9968886+9433734+8837985+8289280+7837242+7528915+7313388+7164239+6872044
2626+6252450+5618033+5117017+4805468+4565453+4350570+4019064+3600537+3080832
2608+2505060+2051733+1894206+1997036+1987752+1856003+1678498+1337949+962600
2590+638162+507058+548685+748181+805899+578128+305246+179941-26562-355491
2570-597440-575167-334426+78381+536944+858885+1007490+984008+925081+932533
2550+858139+561413+122263-255642-460858-321295+0+275823+602556+761734+870646
2528+948624+717912+482690+191400+47045+70245+77978-25777-134688-132110-63155
2506+45756+134045+116645+99889+67022+70245+97956+50911+94089+228778+509112
2484+759801+955068+947979+860335+883535+891912+697934+428556+315778+314489
2464+383445+225556-119221-488489-656689-572267-230710+4511+48978-284844-684400
2442-856467-505244+133400+897712+1450647+1605314+1346891+812001+227489+0+220018
2420+631456+906896+890402+722484+640901+669518+839289+1014196+812102+392850+0
2398-199616+28658+543086+1243759+1355116+1466472+1577828+1689185+1800541
2380+1911898+2023254+2134610+2245966+2357323+2468679+2580036+2691392+2802748
2362+2914105+3025461+3136817+3248174+3359530+3470886+3582243+3693599+3804955
2344+3916312+4027668+4139025+4250381+4361737+4473094+4584450+4695806+4807163
2326+4918519+5029875+5141232+5252588+5363944+5475301+5586657+5698013+5809370
2308+5920726+6032083+6143439+6254795+6366151+6477508+6588865+6700221+6811577
2290+6922933+7034290+7145646+7257002+7368359+7479715+7165387+7303459+7415734
2272+7086583+6602122+6403129+6676535+7190319+7332903+6883221+6068158+5894964
2254+6203150+6415978+6097138+5142211+4207926+3659664+3256403+3118632+2891304
2236+2343687+2026116+2323367+2536195+2424222+2146607+2284680+2847442+3640251
2218+4282924+4736130+5359450+5837145+6089929+6047556+5874986+6283081+6620931
2200+6968428+7141301+7073795+7001114+6973564+6670836+6083263+5475691+5298630
2182+5291058+5853800+7227274+8545970+9314310+9226162+8503256+7665638+7272667
2164+7310850+7758257+8246243+8718782+9492278+10420441+10758271+10596032
2148+10152814+9369954+8163069+7825541+8858083+10100735+10318719+9401190+8174307
2130+7218111+6532582+6170545+6019261+6012333+6554473+7675304+8956623+9833874
2112+9931971+9719465+9602337+9575411+9817884+10001068+9833673+9586991+9285552
2094+9208380+9301321+9913705+10355956+10603564+10456791+9870507+9663801
2078+10116343+10802838+11140044+10639451+9449966+8086481+7272707+7265759
2062+7951610+8243705+7958357+7667873+7710568+7773864+7812048+7605986+7276191
2044+6856154+6232492+5723541+5757193+6058955+6639761+7110992+7223931+6814225
2026+6235674+5319413+4175040+2907577+2886451+3943502+5452310+6609251+7274459
2008+7143798+6366758+4979408+3588212+2450282+1621666+1248694+1654211+2774418
1990+3735427+4434167+4895107+4730270+5100987+5179770+5297845+5103383+4080165
1972+2993791+1322885+0-1387087-1996974-1587993-1055278-819009+74595+1751200
1952+3220294+4035920+3756633+2714968+1950414+1765861+2199975+2514868+2186603
1934+1561894+1006140+549631+597723+908104+1657997+2309290+2292937+1895717
1916+1612564+1379033+1021768+1183282+2101375+2965335+3418783+3243896+2585032
1898+1921011+1490280+1651794+2203842+2701757+2992160+3183319+3132810+2849657
1880+2373815+1977239+1418263+607954+0+233289+1122624+1933981+2339981+2237514
1860+2125381+2092514+2167914+2090581+1603380+683112-138555-417600+175289
1842+1276002+2185314+2349648+1665891+597401-95377+0+695900+1638643+2310699
1822+2489130+2268629+1707881+1069135+700411+706775+974120+1291106+1159539
1804+505346+0+29000+123089-128244-197199+453045+1157424+1374602+1197380+886757
1782+748846+739179+404067+0+35646+1817094+5433923+9820865+14301895+20618950
1762+31163567+47973483+71091874+98612472+130122187+166784243+208397573
1748+249586213+280449549+294943972+294159884+281188688+259504590+232223484
1734+201472040+171031863+146121672+127489668+113343003+102352833+93703933
1720+87411769+84266432+85152102+87751996+88578376+87282598+84695995+81134347
1704+76786475+72967693+71395448+73146607+76788570+80155354+82353759+83309028
1688+84352587+88085416+95994251+105597978+112763768+117833821+122780786
1674+128970885+137053721+146699981+156353330+164948500+173170535+181792127
1660+189594629+195169928+199636780+205355146+212493869+218424901+222104886
1646+224566869+225497649+224680694+223110382+221518803+220591648+220368227
1632+218952581+215513378+210912239+205580299+199010380+191461547+183376537
1618+174641925+165624402+156744146+148140357+140005079+132288047+124862304
1604+118053295+111787554+105871746+100204051+94898533+89946816+85284455
1590+81050650+77373646+73902864+70321882+66781501+63518875+60945806+59421250
1574+58542427+57818272+57552962+57648541+57481831+56891721+56151454+56830901
1558+61894510+69705390+74837954+76908114+78005806+78441653+77693653+76601520
1542+76594632+77771591+78615371+78076172+76206193+73517768+70597343+67372095
1526+63859424+60708932+58328552+57120418+56322796+54447017+50978169+46335786
1510+40715779+34963016+29607232+24558203+20009265+15645282+11374743+8173984
1494+5850316+3228913+893000+0-459831-1102041-1342782-273345+2186805+7521826
1474+20579236+43107416+68982181+91961473+110479914+124763059+134551198
1460+140561578+145565354+150132196+151349211+148583554+144053405+139323457
1446+135422287+132597340+130097839+127794249+125934017+124419872+122836127
1432+120972049+118919792+117013825+115803194+115432940+116091865+118187904
1418+121124943+122741494+121653328+118801959+115244923+111874131+109234140
1404+107199264+105337119+103259729+100758938+98129903+95797937+94003459
1390+93637071+95693799+100424330+106896153+113672778+119919045+124997577
1376+128446306+130568103+131779338+132406665+132771743+133011115+133294308
1362+133496342+133347757+132748745+131788159+130783106+129997849+129498041
1348+129305030+129497357+130101484+131234097+132748181+134094105+134498454
1334+133421264+130939142+127462641+123467402+119492745+115758506+112399294
1320+109458971+106996223+104735791+102509554+100338699+98272245+96288320
1306+94283732+92197340+89986530+87526964+84743282+81770737+78762144+75902377
1290+73466695+71669619+70511188+69661487+68816901+67809955+66516835+64985270
1274+63422168+62145804+61517147+61639874+62297490+63134947+63816407+64260753
1258+64677991+65356874+66546198+68318704+70789830+73816428+77044777+79952797
1242+81990171+82781872+81974664+79524804+75747347+70800866+64848447+58092363
1226+50842674+43394456+36202083+29871374+24705781+20951565+18560310+17373523
1210+16888578+16611748+16083625+14940017+13175847+10919926+8322448+5769478
1194+3393690+1409120+0-626762+95942+2539961+6947605+13542537+22425854+33681375
1174+47595878+64858274+85939654+111087485+140038832+171851557+204969244
1160+237506285+267760057+294395267+315996070+331615131+340378582+341971973
1146+336495113+324620844+307663834+287449153+265781247+245084520+227722154
1132+215462507+208951353+207528055+209341806+212352292+214990934+216662263
1118+217714280+219069830+221533867+226384890+234423984+244978992+256176513
1104+265566365+271340877+273414340+273527440+274562057+279124368+289266287
1090+305449882+327615220+354944498+385878803+418213529+449119480+473740798
1076+485599520+480082060+456798530+422049027+386898679+361221678+350473940
1062+355155473+371749580+396566810+427094470+461164003+496837560+531213849
1048+561141571+584981178+602902842+615922854+625757373+634490535+644281876
1034+657993378+677678325+703783761+735455272+771273226+809242338+846887213
1020+882061285+913469298+939875771+960561502+976081922+988092693+998654186
1006+1009441236+1021532562+1035018468+1048800900+1061023774+1069826576
994+1073741823+1070570104+1058802209+1037918634+1008285342+970649972+926293117
980+877323967+825733857+773360665+721782719+672474590+626480803+584032755
966+545028624+509176515+476155414+445540028+417220157+391139089+367320024
952+345900230+327506107+313117897+303195008+297520948+295430005+295762176
938+297459283+299693213+301747342+303282089+303658082+302619518+300241797
924+296655096+291190481+283168062+272364861+259005145+243851978+228083970
910+212582762+198016000+184794840+172832282+161947237+151699548+141554366
896+131302811+121070589+110555455+99484809+87894741+76324650+65720583+57021536
880+50931165+48182887+49029326+53589059+61799575+72984852+85943642+98624072
864+109812570+118148754+122635020+122945280+120108069+115491544+109945084
850+104134402+98458449+92786323+86857707+80727380+74438519+67838391+60889618
834+53565134+46007400+38474760+31458320+25295771+20378934+16056921+12060997
818+8397607+5528858+3425026+2136417+1059831+0-2192080-3793205-4022305-3117826
798-1926569-1179979-1088145-1219290-1012745+0+845673+2861660+6079537+10814438
778+16934897+24528559+32822088+41597662+50258525+57457786+62306109+64880185
762+65071102+62862749+58413659+52236811+45094584+37093955+28757571+20931587
746+14470538+9557448+6614427+5896675+7212150+10126493+14173771+19024028
730+24875754+32022170+40672077+50520653+60357629+68495846+73964771+77605404
714+80532637+84538026+89434039+93483895+95563681+94902641+91188219+85319416
698+78697900+71907540+66156026+61913159+59285272+58160231+58625037+60212467
682+61431919+61861925+60898641+59183288+58463604+59190055+60955996+60322023
666+52588839+43310920+37061250+33287538+30457295+28473209+26730145+26075550
650+25697422+24563359+21184048+16020268+9444509+3818017+891751+0-3416768
632-5893855-8298845-10266256-11918453-11253305-7736486-1484560+7047333+15104914
614+20758150+22607789+20351022+17476957+14247721+10308951+5031749+0
##END=
