##TITLE= Carolina Isabel
##JCAMP-DX=4.24
##DATA TYPE=INFRARED SPECTRUM
##ORIGIN= Exported PE Spectrum Data File
##XUNITS=1/CM
##YUNITS=ABSORBANCE
##RESOLUTION=8
##FIRSTX=3030
##LASTX=600
##DELTAX=-2
##MAXY=0.24902776
##MINY=0
##XFACTOR=1
##YFACTOR=2.3192517e-010
##NPOINTS=1216
##FIRSTY=0
##XYDATA=(X++(Y..Y))
3030+0+256068+827185+1704677+2944539+4677294+7070055+10183443+13762996+17435100
3010+20605542+22822998+23843896+23578255+22221362+20097615+17840742+15904571
2994+14456733+13648309+13653513+14437458+14850552+15821336+17376055+19672955
2978+22921268+26998147+31849654+37399140+43700606+51048060+59605500+69075769
2962+79013264+88763663+97675215+105325447+111610465+116646466+120971606
2948+125680222+131953418+140616709+152235494+166959861+184621249+204732325
2934+226555530+249094736+271292165+291864812+309301551+322082487+328921114
2920+329144029+322946584+311589617+296672693+280205581+263873619+248730022
2906+235279538+223494956+213121269+203888660+195669142+188320885+181705044
2892+175552831+169655046+163959264+158618172+153762264+149514930+146063781
2878+143587719+142284058+142203199+143013101+144194624+145770930+148357212
2864+153301207+161825718+174015074+188769767+203857531+216197456+222502552
2850+220633492+210576942+194322080+174845472+155275862+137677920+123002569
2836+111290942+101924726+94375977+88102459+82754654+78159889+74187545+70692705
2820+67526825+64627711+61986142+59532150+57282216+55277974+53459317+51681234
2804+49841986+47996569+46398900+45018684+43795720+42611820+41458760+40386943
2788+39471351+38745938+38146968+37581955+36912568+36197435+35470479+34819596
2772+34257153+33749675+33355277+32998916+32730480+32520607+32364705+32188757
2756+32016953+31853854+31619310+31394018+31122980+30856086+30585048+30410642
2740+30352399+30307023+30194827+29941264+29671784+29572422+29565065+29557725
2724+29487660+29189911+28746683+28250015+27870009+27710011+27711393+27717416
2708+27532730+27207208+26882216+26648700+26472768+26322005+26134251+25930547
2692+25722233+25547313+25426378+25384070+25436353+25517918+25624155+25631721
2676+25548292+25370304+25184074+25142295+25286055+25388710+25301683+25013185
2660+24613648+24226446+23893744+23568736+23220100+22842664+22522812+22379760
2644+22192006+21831532+21344630+20833555+20330719+19877724+19432954+19029834
2628+18671930+18256989+17997773+17910248+17847894+17564536+17081216+16488432
2612+15981468+15573193+15258481+15054262+14997064+15025173+15020917+14939543
2596+14751789+14507993+14260101+14154571+14264406+14492477+14716420+14713191
2580+14392809+14048285+13845609+13728787+13555408+13406718+13399362+13514353
2564+13722362+13861495+13944103+14067302+14267617+14439132+14570571+14442425
2548+14063463+13518464+13051094+13004674+13302151+13745089+14063126+14218739
2532+14099363+14081244+14140226+14122107+13974975+13662334+13393898+13254990
2516+13152576+13037826+12871161+12619688+12473069+12600927+12853686+13082287
2500+13178276+13043994+12869619+12763607+12714135+12741248+12797146+12884397
2484+13032813+13277862+13554779+13791604+13875257+13802141+13615945+13345453
2468+13175705+13002359+12836723+12747672+12864478+13126216+13412128+13512487
2452+13388227+13179142+13151515+13087392+12923555+12699050+12598949+12808275
2436+13286936+13713154+13870052+13682057+13361450+12980689+12813254+12998422
2420+13384050+13774288+13863338+13675343+13463704+13480777+13634077+13815648
2404+13655922+13128158+12548496+12149038+12226058+12655183+13188633+13295795
2388+13402958+13510120+13617282+13724445+13831608+13938769+14045932+14153094
2372+14260257+14367419+14474581+14581744+14688906+14796068+14903231+15010393
2356+15117556+15224717+15331880+15439043+15546205+15653367+15760529+15867692
2340+15974855+16082016+16189179+16296341+16403504+16510666+16617828+16724991
2324+16832153+16939314+17046477+17153640+17260803+17367965+17475126+17582289
2308+17689452+17796614+17903777+18010938+18118101+18225263+18332426+18439589
2292+18546750+18653912+18761075+18868238+18975401+19082561+19189724+19296887
2276+19404050+19604959+19434231+18952020+18545880+18295482+18025569+17747415
2260+17557155+17487171+17632038+17760988+17531150+17110105+16609388+16319927
2244+16046929+16136284+16556141+17020203+16826344+16453631+16192953+15947695
2228+15826311+15744505+15710517+16010611+16486493+17089334+17728154+17765612
2212+17353304+16865953+16847883+17645529+19068728+20126457+20877329+21488908
2196+21570039+21284705+21094960+21431549+21795893+21626193+21161472+20079938
2180+19425023+19661896+20192777+20700544+21040731+21125974+21199396+21153569
2164+21051733+20950395+20371552+19784485+19472921+19255950+19318063+19359617
2148+19480840+19427304+18976977+18681347+18727013+18633899+18168135+17769722
2132+18006081+18782139+19610111+20263837+20702728+20740684+20826441+21134246
2116+21784375+22485919+22849236+22962749+23008415+22990859+23139854+23384437
2100+23303145+22701686+21881777+21312716+21220116+21809593+22474627+23056393
2084+23249593+23216103+23281814+23581909+24013074+24102446+23934286+23714214
2068+23494142+23472988+23780809+24088614+23844898+22994663+22279611+22084227
2052+22419788+23270376+23502623+22867240+21669558+20350043+19688446+19810183
2036+20516851+20662247+19984716+19051213+18426110+18582800+18890107+19011844
2020+18335855+17593047+17177655+16971991+16991443+17401020+17664621+17743183
2004+17190056+16397390+15612947+15238162+15277144+15623515+16107622+16619485
1988+17249567+17931049+18214198+18410980+18213010+17602299+16916544+16010813
1972+15483370+14645472+13934017+12503992+11440464+10993718+11134988+11880221
1956+13061342+14435727+15232875+15228699+15094497+14948473+14932475+14896431
1940+15245388+15468929+15523863+15373711+15235911+14819010+14504378+14103395
1924+13981529+13765087+13466388+13324974+13662109+13838363+13739611+13668615
1908+13970798+14370641+14621408+14648586+14302616+13737169+13023161+12654559
1892+12732639+13136080+13673144+14084793+14268756+14138666+13836370+13409173
1876+12981477+12483878+12170275+12303336+12702665+12890227+12866518+12729216
1860+12635106+12611414+12740364+12939731+12837911+12344424+11850921+11631892
1844+11768568+12050191+12116946+11850631+11326304+10841040+10723784+10874499
1828+11260126+11602562+11874596+11876764+11663583+11305952+10897452+10672947
1812+10620647+10771361+10992508+10998275+10734722+10627409+10666408+10654538
1796+10407754+10321338+10567496+10747331+10594609+10332405+10187409+10210989
1780+10297277+10399000+10543884+10817106+11800161+13682730+16224743+19263280
1764+23650550+30636101+41579943+56753994+75208387+96832611+121703782+148995872
1748+175378183+194887302+203875392+203162765+194800291+180821866+162947842
1734+142215487+121191678+104070149+92027957+83824840+77934701+73473480+70305479
1718+68560228+68591373+69785682+70892611+71258353+70875215+69827460+68247203
1702+66549236+65613019+66177181+68183612+71265838+74620484+77630767+80807056
1686+85146524+91214570+98287998+104563203+110156828+115953997+122166991
1672+129027640+136692167+144540192+152087527+159733036+167650467+175189578
1658+181754147+187388893+192492693+197108179+200664826+202847555+204363627
1644+205573885+206405311+206694981+206402291+205006575+202645553+200326679
1630+198308495+195632391+191481127+185705610+178934478+171755230+163968451
1616+155457432+146779364+138722720+131496176+124617119+117861407+111632543
1602+105984498+100602206+95429096+90539714+86030690+81866560+78120841+74818687
1586+71727787+68736088+66060515+63766313+61803640+60096425+58879050+58179803
1570+57837255+57733716+57979183+58479609+59096183+60248344+62803207+66276073
1554+69197948+71375537+73203606+74627158+75482758+75661404+75233018+74230496
1538+73061951+71943795+70684787+69064437+67080690+64878510+62644446+60412952
1522+58149590+56086173+54255614+52165984+49658472+47004985+43734201+39112612
1506+33331955+28206133+24733845+22025890+19349273+16870031+14631340+12471821
1490+10633022+9618678+9259376+9481922+10513502+12818273+16251256+21638463
1474+32142529+48891168+68436475+86864862+102597855+115383048+124982990
1460+131506135+135967107+138622924+138851123+137005867+134157791+131156535
1446+128648204+127110817+126375269+125972294+125375011+124491431+123573927
1432+122768474+122140865+121928568+122265751+123218689+124696934+126538062
1418+128082613+128771869+128278414+126924027+125009365+122830507+120653192
1404+118668112+116788402+114783790+112304773+109395515+106765881+105275782
1390+105523513+107731636+111990615+117664136+123716457+129529255+134402462
1376+137787643+139947965+141489961+142898302+144444909+145768440+146483397
1362+146628328+146401125+146138985+145925146+145680980+145405461+145386941
1348+145807376+146853861+148372214+150129046+151790259+152794613+152783819
1334+151761443+149687971+146556658+142648210+138466282+134345039+130565605
1320+127161872+124220256+121572101+119207192+117111587+115280723+113472474
1306+111542376+109460167+107191343+104723120+102026136+99191432+96346962
1292+93626847+91169933+89049141+87306171+85733816+84187193+82529032+80663698
1276+78691484+76836944+75354571+74549617+74461723+74866240+75452681+75953316
1260+76337755+76696526+77216179+78056535+79276254+81087555+83389242+85921682
1244+88166830+89625559+89857340+88660750+86071706+82229564+77372242+71639612
1228+65282473+58624099+52033091+45872268+40547753+36219336+33170294+31489004
1212+30922545+30985253+31158438+30829993+29680145+27663727+24900469+21690514
1196+18374193+15239794+12459060+10157855+8654922+7997035+9031201+11953317
1180+16991568+24303202+34090288+46735689+62777114+82722360+106834564+134845995
1164+165895674+198455964+230848722+261384402+288737867+311423756+328132319
1150+337765719+339734881+334247428+322223483+305117117+284904624+263790624
1136+244213465+228552432+218224170+213349918+212825671+214792777+217324736
1122+219148436+220038715+220589721+221834659+224568105+229693735+237555380
1108+247297716+257204563+265167467+269650035+270765445+270264328+270930471
1094+275451637+285469476+301639401+323796898+351198695+382404116+415266155
1080+446584623+471244782+482810818+476666475+452621637+417212765+381522768
1066+355495951+344657770+349333136+365956407+390706997+420971800+454574512
1052+489533635+523388206+553152855+577331365+595677593+609019977+618826112
1038+627388306+637079756+650743903+670349429+696183014+727453231+762800423
1024+800524860+838235933+873823677+905806810+932960923+954477946+970798440
1010+983395526+994204923+1005187088+1017633572+1031720805+1046377484+1059642768
996+1069356834+1073741823+1071090617+1060332169+1041020716+1013306922+977301297
982+934348977+886060385+834832232+782260936+730095186+679885715+632574684
968+588524527+547687826+510146919+475554823+443429377+413564015+386038377
954+361144381+339242405+320930198+306931951+297584913+292799583+291937639
940+293771619+297069436+300572371+303631725+305817248+306658697+305924738
926+303958178+300639833+295241303+287033286+275624084+261316410+245128046
912+228353209+212266585+197600172+184449542+172566400+161644469+151225711
898+140981745+130860632+120919379+110775642+100039779+88873152+77723520
884+67547915+59138893+53346671+50707287+51881806+57016174+65883169+77763258
868+91399168+105169713+117611603+127050679+131992811+131957891+128104442
854+122283436+115850771+109701288+104123918+98693038+92833450+86341676+79161111
838+71737456+64278846+56937913+49650983+42597922+35949860+30223946+25717235
822+21871493+18431845+15148935+12297301+9936536+8474723+7440589+5262744+3354780
804+1950502+1530019+1919084+2775920+3713422+4544526+5395676+6242746+7369914
786+8136158+9807553+12966944+17793779+24265411+32248168+41224517+50831542
770+60124514+68023003+73794054+77119499+77703787+75392206+70687895+63750327
754+55576073+46552694+37561696+29448609+22779858+17661842+14030824+11707870
738+11066271+12232406+14926146+18482891+22631248+27711483+34240685+42650607
722+52134272+60710152+67129870+71781941+75474381+79634046+84182808+87886042
706+89067597+87182634+83046806+78184762+73196788+67998588+62442645+57306639
690+53586701+51710990+51265225+50765489+49357453+47223201+45648180+45804821
674+47697237+49942256+49589524+45708703+39865949+35750167+33996788+32866890
658+31079073+28523856+25641736+22813071+20135008+18097902+16685819+15217131
642+12088291+9455460+7433260+6881611+4069908+2209103+1343850+516183+0+30420
622+1349885+3947215+7969351+11694909+13933982+13798316+11450462+9124198+7686123
604+6807214+4415157+0
##END=
